Record Length,2.50E+03,,t,V
Sample Interval,1.00E-06,,-0.00125,0.004
Trigger Point,1.25E+03,,-0.001249,0.008
,,,-0.001248,0.01
,,,-0.001247,0.01
,,,-0.001246,0.01
Source,CH1,,-0.001245,0.008
Vertical Units,V,,-0.001244,0.014
Vertical Scale,5.00E-02,,-0.001243,0.01
Vertical Offset,0.00E+00,,-0.001242,0.012
Horizontal Units,s,,-0.001241,0.014
Horizontal Scale,2.50E-04,,-0.00124,0.014
Pt Fmt,Y,,-0.001239,0.014
Yzero,0.00E+00,,-0.001238,0.014
Probe Atten,1.00E+00,,-0.001237,0.016
Model Number,TDS2014B,,-0.001236,0.018
Serial Number,C041770,,-0.001235,0.014
Firmware Version,FV:v22.01,,-0.001234,0.016
,,,-0.001233,0.016
,,,-0.001232,0.02
,,,-0.001231,0.02
,,,-0.00123,0.018
,,,-0.001229,0.018
,,,-0.001228,0.02
,,,-0.001227,0.018
,,,-0.001226,0.02
,,,-0.001225,0.018
,,,-0.001224,0.022
,,,-0.001223,0.018
,,,-0.001222,0.022
,,,-0.001221,0.02
,,,-0.00122,0.022
,,,-0.001219,0.02
,,,-0.001218,0.018
,,,-0.001217,0.02
,,,-0.001216,0.02
,,,-0.001215,0.02
,,,-0.001214,0.02
,,,-0.001213,0.02
,,,-0.001212,0.02
,,,-0.001211,0.022
,,,-0.00121,0.018
,,,-0.001209,0.018
,,,-0.001208,0.018
,,,-0.001207,0.018
,,,-0.001206,0.014
,,,-0.001205,0.014
,,,-0.001204,0.014
,,,-0.001203,0.01
,,,-0.001202,0.01
,,,-0.001201,0.01
,,,-0.0012,0.008
,,,-0.001199,0.006
,,,-0.001198,0.006
,,,-0.001197,0.004
,,,-0.001196,0.002
,,,-0.001195,0
,,,-0.001194,-0.002
,,,-0.001193,-0.002
,,,-0.001192,-0.008
,,,-0.001191,-0.006
,,,-0.00119,-0.006
,,,-0.001189,-0.008
,,,-0.001188,-0.008
,,,-0.001187,-0.006
,,,-0.001186,-0.008
,,,-0.001185,-0.006
,,,-0.001184,-0.008
,,,-0.001183,-0.01
,,,-0.001182,-0.008
,,,-0.001181,-0.006
,,,-0.00118,-0.008
,,,-0.001179,-0.01
,,,-0.001178,-0.01
,,,-0.001177,-0.01
,,,-0.001176,-0.008
,,,-0.001175,-0.006
,,,-0.001174,-0.006
,,,-0.001173,-0.008
,,,-0.001172,-0.004
,,,-0.001171,-0.004
,,,-0.00117,-0.002
,,,-0.001169,-0.002
,,,-0.001168,0.002
,,,-0.001167,-0.004
,,,-0.001166,-0.002
,,,-0.001165,-0.004
,,,-0.001164,-0.002
,,,-0.001163,-0.004
,,,-0.001162,-0.006
,,,-0.001161,-0.006
,,,-0.00116,-0.008
,,,-0.001159,-0.006
,,,-0.001158,-0.006
,,,-0.001157,-0.008
,,,-0.001156,-0.008
,,,-0.001155,-0.008
,,,-0.001154,-0.008
,,,-0.001153,-0.008
,,,-0.001152,-0.008
,,,-0.001151,-0.008
,,,-0.00115,-0.008
,,,-0.001149,-0.006
,,,-0.001148,-0.004
,,,-0.001147,-0.006
,,,-0.001146,-0.008
,,,-0.001145,-0.006
,,,-0.001144,-0.008
,,,-0.001143,-0.008
,,,-0.001142,-0.008
,,,-0.001141,-0.008
,,,-0.00114,-0.008
,,,-0.001139,-0.008
,,,-0.001138,-0.008
,,,-0.001137,-0.008
,,,-0.001136,-0.006
,,,-0.001135,-0.004
,,,-0.001134,-0.006
,,,-0.001133,-0.01
,,,-0.001132,-0.01
,,,-0.001131,-0.008
,,,-0.00113,-0.008
,,,-0.001129,-0.01
,,,-0.001128,-0.006
,,,-0.001127,-0.008
,,,-0.001126,-0.008
,,,-0.001125,-0.008
,,,-0.001124,-0.006
,,,-0.001123,-0.008
,,,-0.001122,-0.008
,,,-0.001121,-0.008
,,,-0.00112,-0.006
,,,-0.001119,-0.008
,,,-0.001118,-0.01
,,,-0.001117,-0.008
,,,-0.001116,-0.006
,,,-0.001115,-0.008
,,,-0.001114,-0.008
,,,-0.001113,-0.004
,,,-0.001112,-0.006
,,,-0.001111,-0.008
,,,-0.00111,-0.008
,,,-0.001109,-0.008
,,,-0.001108,-0.008
,,,-0.001107,-0.01
,,,-0.001106,-0.01
,,,-0.001105,-0.006
,,,-0.001104,-0.006
,,,-0.001103,-0.008
,,,-0.001102,-0.006
,,,-0.001101,-0.006
,,,-0.0011,-0.008
,,,-0.001099,-0.006
,,,-0.001098,-0.008
,,,-0.001097,-0.006
,,,-0.001096,-0.008
,,,-0.001095,-0.008
,,,-0.001094,-0.006
,,,-0.001093,-0.01
,,,-0.001092,-0.008
,,,-0.001091,-0.008
,,,-0.00109,-0.01
,,,-0.001089,-0.006
,,,-0.001088,-0.006
,,,-0.001087,-0.008
,,,-0.001086,-0.008
,,,-0.001085,-0.006
,,,-0.001084,-0.01
,,,-0.001083,-0.006
,,,-0.001082,-0.008
,,,-0.001081,-0.006
,,,-0.00108,-0.008
,,,-0.001079,-0.008
,,,-0.001078,-0.008
,,,-0.001077,-0.01
,,,-0.001076,-0.008
,,,-0.001075,-0.006
,,,-0.001074,-0.008
,,,-0.001073,-0.006
,,,-0.001072,-0.004
,,,-0.001071,-0.004
,,,-0.00107,-0.002
,,,-0.001069,-0.002
,,,-0.001068,-0.004
,,,-0.001067,-0.002
,,,-0.001066,0
,,,-0.001065,0.004
,,,-0.001064,0.004
,,,-0.001063,0.006
,,,-0.001062,0.006
,,,-0.001061,0.006
,,,-0.00106,0.004
,,,-0.001059,0.01
,,,-0.001058,0.008
,,,-0.001057,0.008
,,,-0.001056,0.008
,,,-0.001055,0.012
,,,-0.001054,0.012
,,,-0.001053,0.01
,,,-0.001052,0.012
,,,-0.001051,0.014
,,,-0.00105,0.014
,,,-0.001049,0.012
,,,-0.001048,0.012
,,,-0.001047,0.008
,,,-0.001046,0.01
,,,-0.001045,0.008
,,,-0.001044,0.004
,,,-0.001043,0.004
,,,-0.001042,0
,,,-0.001041,0
,,,-0.00104,-0.002
,,,-0.001039,-0.004
,,,-0.001038,-0.004
,,,-0.001037,-0.008
,,,-0.001036,-0.01
,,,-0.001035,-0.006
,,,-0.001034,-0.008
,,,-0.001033,-0.008
,,,-0.001032,-0.008
,,,-0.001031,-0.004
,,,-0.00103,-0.008
,,,-0.001029,-0.008
,,,-0.001028,-0.008
,,,-0.001027,-0.008
,,,-0.001026,-0.008
,,,-0.001025,-0.008
,,,-0.001024,-0.01
,,,-0.001023,-0.004
,,,-0.001022,-0.01
,,,-0.001021,-0.01
,,,-0.00102,-0.01
,,,-0.001019,-0.006
,,,-0.001018,-0.006
,,,-0.001017,-0.012
,,,-0.001016,-0.008
,,,-0.001015,-0.008
,,,-0.001014,-0.006
,,,-0.001013,-0.006
,,,-0.001012,-0.01
,,,-0.001011,-0.01
,,,-0.00101,-0.012
,,,-0.001009,-0.018
,,,-0.001008,-0.022
,,,-0.001007,-0.028
,,,-0.001006,-0.034
,,,-0.001005,-0.014
,,,-0.001004,0.008
,,,-0.001003,0.03
,,,-0.001002,0.048
,,,-0.001001,0.072
,,,-0.001,0.092
,,,-0.000999,0.112
,,,-0.000998,0.136
,,,-0.000997,0.148
,,,-0.000996,0.128
,,,-0.000995,0.104
,,,-0.000994,0.084
,,,-0.000993,0.064
,,,-0.000992,0.04
,,,-0.000991,0.02
,,,-0.00099,0
,,,-0.000989,-0.022
,,,-0.000988,-0.044
,,,-0.000987,-0.05
,,,-0.000986,-0.036
,,,-0.000985,-0.028
,,,-0.000984,-0.022
,,,-0.000983,-0.012
,,,-0.000982,-0.008
,,,-0.000981,-0.008
,,,-0.00098,-0.006
,,,-0.000979,-0.01
,,,-0.000978,-0.008
,,,-0.000977,-0.006
,,,-0.000976,-0.008
,,,-0.000975,-0.008
,,,-0.000974,-0.006
,,,-0.000973,-0.008
,,,-0.000972,-0.008
,,,-0.000971,-0.008
,,,-0.00097,-0.008
,,,-0.000969,-0.008
,,,-0.000968,-0.008
,,,-0.000967,-0.006
,,,-0.000966,-0.01
,,,-0.000965,-0.01
,,,-0.000964,-0.01
,,,-0.000963,-0.006
,,,-0.000962,-0.006
,,,-0.000961,-0.008
,,,-0.00096,-0.008
,,,-0.000959,-0.008
,,,-0.000958,-0.008
,,,-0.000957,-0.008
,,,-0.000956,-0.006
,,,-0.000955,-0.008
,,,-0.000954,-0.008
,,,-0.000953,-0.008
,,,-0.000952,-0.008
,,,-0.000951,-0.008
,,,-0.00095,-0.008
,,,-0.000949,-0.008
,,,-0.000948,-0.008
,,,-0.000947,-0.008
,,,-0.000946,-0.008
,,,-0.000945,-0.008
,,,-0.000944,-0.008
,,,-0.000943,-0.008
,,,-0.000942,-0.006
,,,-0.000941,-0.008
,,,-0.00094,-0.006
,,,-0.000939,-0.006
,,,-0.000938,-0.008
,,,-0.000937,-0.006
,,,-0.000936,-0.01
,,,-0.000935,-0.008
,,,-0.000934,-0.01
,,,-0.000933,-0.008
,,,-0.000932,-0.008
,,,-0.000931,-0.006
,,,-0.00093,-0.002
,,,-0.000929,-0.004
,,,-0.000928,-0.002
,,,-0.000927,0
,,,-0.000926,0
,,,-0.000925,0
,,,-0.000924,0
,,,-0.000923,0
,,,-0.000922,0.004
,,,-0.000921,0.004
,,,-0.00092,0.004
,,,-0.000919,0.004
,,,-0.000918,0.006
,,,-0.000917,0.008
,,,-0.000916,0.008
,,,-0.000915,0.01
,,,-0.000914,0.01
,,,-0.000913,0.01
,,,-0.000912,0.01
,,,-0.000911,0.01
,,,-0.00091,0.01
,,,-0.000909,0.012
,,,-0.000908,0.012
,,,-0.000907,0.014
,,,-0.000906,0.012
,,,-0.000905,0.014
,,,-0.000904,0.014
,,,-0.000903,0.014
,,,-0.000902,0.014
,,,-0.000901,0.016
,,,-0.0009,0.014
,,,-0.000899,0.018
,,,-0.000898,0.016
,,,-0.000897,0.018
,,,-0.000896,0.018
,,,-0.000895,0.02
,,,-0.000894,0.016
,,,-0.000893,0.018
,,,-0.000892,0.018
,,,-0.000891,0.022
,,,-0.00089,0.02
,,,-0.000889,0.018
,,,-0.000888,0.02
,,,-0.000887,0.02
,,,-0.000886,0.02
,,,-0.000885,0.02
,,,-0.000884,0.02
,,,-0.000883,0.018
,,,-0.000882,0.02
,,,-0.000881,0.022
,,,-0.00088,0.018
,,,-0.000879,0.02
,,,-0.000878,0.02
,,,-0.000877,0.02
,,,-0.000876,0.018
,,,-0.000875,0.018
,,,-0.000874,0.016
,,,-0.000873,0.014
,,,-0.000872,0.014
,,,-0.000871,0.014
,,,-0.00087,0.014
,,,-0.000869,0.01
,,,-0.000868,0.012
,,,-0.000867,0.01
,,,-0.000866,0.006
,,,-0.000865,0.006
,,,-0.000864,0.002
,,,-0.000863,0.002
,,,-0.000862,-0.002
,,,-0.000861,-0.002
,,,-0.00086,-0.002
,,,-0.000859,-0.006
,,,-0.000858,-0.004
,,,-0.000857,-0.008
,,,-0.000856,-0.008
,,,-0.000855,-0.004
,,,-0.000854,-0.008
,,,-0.000853,-0.006
,,,-0.000852,-0.006
,,,-0.000851,-0.008
,,,-0.00085,-0.006
,,,-0.000849,-0.01
,,,-0.000848,-0.006
,,,-0.000847,-0.008
,,,-0.000846,-0.01
,,,-0.000845,-0.008
,,,-0.000844,-0.01
,,,-0.000843,-0.008
,,,-0.000842,-0.006
,,,-0.000841,-0.006
,,,-0.00084,-0.006
,,,-0.000839,-0.004
,,,-0.000838,-0.004
,,,-0.000837,-0.006
,,,-0.000836,-0.004
,,,-0.000835,0
,,,-0.000834,-0.002
,,,-0.000833,-0.002
,,,-0.000832,0
,,,-0.000831,-0.006
,,,-0.00083,-0.004
,,,-0.000829,-0.006
,,,-0.000828,-0.008
,,,-0.000827,-0.008
,,,-0.000826,-0.008
,,,-0.000825,-0.01
,,,-0.000824,-0.01
,,,-0.000823,-0.01
,,,-0.000822,-0.006
,,,-0.000821,-0.008
,,,-0.00082,-0.008
,,,-0.000819,-0.008
,,,-0.000818,-0.008
,,,-0.000817,-0.008
,,,-0.000816,-0.01
,,,-0.000815,-0.008
,,,-0.000814,-0.01
,,,-0.000813,-0.008
,,,-0.000812,-0.008
,,,-0.000811,-0.008
,,,-0.00081,-0.008
,,,-0.000809,-0.008
,,,-0.000808,-0.006
,,,-0.000807,-0.006
,,,-0.000806,-0.008
,,,-0.000805,-0.006
,,,-0.000804,-0.01
,,,-0.000803,-0.008
,,,-0.000802,-0.006
,,,-0.000801,-0.008
,,,-0.0008,-0.008
,,,-0.000799,-0.01
,,,-0.000798,-0.008
,,,-0.000797,-0.012
,,,-0.000796,-0.01
,,,-0.000795,-0.006
,,,-0.000794,-0.006
,,,-0.000793,-0.006
,,,-0.000792,-0.006
,,,-0.000791,-0.008
,,,-0.00079,-0.008
,,,-0.000789,-0.008
,,,-0.000788,-0.01
,,,-0.000787,-0.01
,,,-0.000786,-0.01
,,,-0.000785,-0.006
,,,-0.000784,-0.006
,,,-0.000783,-0.006
,,,-0.000782,-0.006
,,,-0.000781,-0.006
,,,-0.00078,-0.008
,,,-0.000779,-0.008
,,,-0.000778,-0.008
,,,-0.000777,-0.008
,,,-0.000776,-0.008
,,,-0.000775,-0.008
,,,-0.000774,-0.008
,,,-0.000773,-0.01
,,,-0.000772,-0.006
,,,-0.000771,-0.008
,,,-0.00077,-0.006
,,,-0.000769,-0.004
,,,-0.000768,-0.008
,,,-0.000767,-0.008
,,,-0.000766,-0.006
,,,-0.000765,-0.01
,,,-0.000764,-0.01
,,,-0.000763,-0.008
,,,-0.000762,-0.008
,,,-0.000761,-0.008
,,,-0.00076,-0.01
,,,-0.000759,-0.006
,,,-0.000758,-0.008
,,,-0.000757,-0.008
,,,-0.000756,-0.006
,,,-0.000755,-0.008
,,,-0.000754,-0.006
,,,-0.000753,-0.01
,,,-0.000752,-0.008
,,,-0.000751,-0.01
,,,-0.00075,-0.01
,,,-0.000749,-0.01
,,,-0.000748,-0.008
,,,-0.000747,-0.012
,,,-0.000746,-0.006
,,,-0.000745,-0.008
,,,-0.000744,-0.008
,,,-0.000743,-0.006
,,,-0.000742,-0.006
,,,-0.000741,-0.008
,,,-0.00074,-0.01
,,,-0.000739,-0.006
,,,-0.000738,-0.006
,,,-0.000737,-0.004
,,,-0.000736,-0.002
,,,-0.000735,0
,,,-0.000734,-0.002
,,,-0.000733,0.002
,,,-0.000732,0.002
,,,-0.000731,0.004
,,,-0.00073,0.006
,,,-0.000729,0.006
,,,-0.000728,0.004
,,,-0.000727,0.008
,,,-0.000726,0.006
,,,-0.000725,0.006
,,,-0.000724,0.008
,,,-0.000723,0.012
,,,-0.000722,0.01
,,,-0.000721,0.01
,,,-0.00072,0.01
,,,-0.000719,0.012
,,,-0.000718,0.012
,,,-0.000717,0.008
,,,-0.000716,0.012
,,,-0.000715,0.008
,,,-0.000714,0.008
,,,-0.000713,0.008
,,,-0.000712,0.008
,,,-0.000711,0.008
,,,-0.00071,0.004
,,,-0.000709,0.002
,,,-0.000708,0
,,,-0.000707,-0.002
,,,-0.000706,-0.002
,,,-0.000705,-0.006
,,,-0.000704,-0.006
,,,-0.000703,-0.008
,,,-0.000702,-0.008
,,,-0.000701,-0.01
,,,-0.0007,-0.008
,,,-0.000699,-0.008
,,,-0.000698,-0.008
,,,-0.000697,-0.008
,,,-0.000696,-0.004
,,,-0.000695,-0.006
,,,-0.000694,-0.008
,,,-0.000693,-0.008
,,,-0.000692,-0.008
,,,-0.000691,-0.01
,,,-0.00069,-0.006
,,,-0.000689,-0.008
,,,-0.000688,-0.008
,,,-0.000687,-0.01
,,,-0.000686,-0.008
,,,-0.000685,-0.01
,,,-0.000684,-0.008
,,,-0.000683,-0.006
,,,-0.000682,-0.006
,,,-0.000681,-0.01
,,,-0.00068,-0.008
,,,-0.000679,-0.006
,,,-0.000678,-0.014
,,,-0.000677,-0.01
,,,-0.000676,-0.014
,,,-0.000675,-0.02
,,,-0.000674,-0.026
,,,-0.000673,-0.032
,,,-0.000672,-0.022
,,,-0.000671,0.004
,,,-0.00067,0.022
,,,-0.000669,0.042
,,,-0.000668,0.064
,,,-0.000667,0.084
,,,-0.000666,0.104
,,,-0.000665,0.126
,,,-0.000664,0.148
,,,-0.000663,0.132
,,,-0.000662,0.112
,,,-0.000661,0.09
,,,-0.00066,0.07
,,,-0.000659,0.048
,,,-0.000658,0.028
,,,-0.000657,0.008
,,,-0.000656,-0.016
,,,-0.000655,-0.038
,,,-0.000654,-0.052
,,,-0.000653,-0.042
,,,-0.000652,-0.03
,,,-0.000651,-0.022
,,,-0.00065,-0.014
,,,-0.000649,-0.01
,,,-0.000648,-0.01
,,,-0.000647,-0.006
,,,-0.000646,-0.01
,,,-0.000645,-0.008
,,,-0.000644,-0.006
,,,-0.000643,-0.008
,,,-0.000642,-0.01
,,,-0.000641,-0.006
,,,-0.00064,-0.008
,,,-0.000639,-0.01
,,,-0.000638,-0.01
,,,-0.000637,-0.008
,,,-0.000636,-0.008
,,,-0.000635,-0.006
,,,-0.000634,-0.008
,,,-0.000633,-0.006
,,,-0.000632,-0.008
,,,-0.000631,-0.008
,,,-0.00063,-0.01
,,,-0.000629,-0.01
,,,-0.000628,-0.008
,,,-0.000627,-0.008
,,,-0.000626,-0.008
,,,-0.000625,-0.008
,,,-0.000624,-0.008
,,,-0.000623,-0.008
,,,-0.000622,-0.008
,,,-0.000621,-0.008
,,,-0.00062,-0.006
,,,-0.000619,-0.01
,,,-0.000618,-0.008
,,,-0.000617,-0.01
,,,-0.000616,-0.008
,,,-0.000615,-0.008
,,,-0.000614,-0.006
,,,-0.000613,-0.008
,,,-0.000612,-0.01
,,,-0.000611,-0.008
,,,-0.00061,-0.006
,,,-0.000609,-0.006
,,,-0.000608,-0.008
,,,-0.000607,-0.008
,,,-0.000606,-0.01
,,,-0.000605,-0.01
,,,-0.000604,-0.01
,,,-0.000603,-0.01
,,,-0.000602,-0.01
,,,-0.000601,-0.01
,,,-0.0006,-0.01
,,,-0.000599,-0.01
,,,-0.000598,-0.006
,,,-0.000597,-0.006
,,,-0.000596,-0.004
,,,-0.000595,-0.002
,,,-0.000594,-0.004
,,,-0.000593,-0.004
,,,-0.000592,-0.002
,,,-0.000591,0
,,,-0.00059,0
,,,-0.000589,0
,,,-0.000588,0.004
,,,-0.000587,0.006
,,,-0.000586,0.006
,,,-0.000585,0.008
,,,-0.000584,0.006
,,,-0.000583,0.004
,,,-0.000582,0.006
,,,-0.000581,0.01
,,,-0.00058,0.008
,,,-0.000579,0.01
,,,-0.000578,0.01
,,,-0.000577,0.012
,,,-0.000576,0.012
,,,-0.000575,0.012
,,,-0.000574,0.014
,,,-0.000573,0.012
,,,-0.000572,0.014
,,,-0.000571,0.014
,,,-0.00057,0.014
,,,-0.000569,0.016
,,,-0.000568,0.016
,,,-0.000567,0.016
,,,-0.000566,0.018
,,,-0.000565,0.016
,,,-0.000564,0.02
,,,-0.000563,0.02
,,,-0.000562,0.016
,,,-0.000561,0.02
,,,-0.00056,0.02
,,,-0.000559,0.02
,,,-0.000558,0.016
,,,-0.000557,0.018
,,,-0.000556,0.02
,,,-0.000555,0.016
,,,-0.000554,0.018
,,,-0.000553,0.02
,,,-0.000552,0.02
,,,-0.000551,0.022
,,,-0.00055,0.02
,,,-0.000549,0.02
,,,-0.000548,0.024
,,,-0.000547,0.018
,,,-0.000546,0.02
,,,-0.000545,0.02
,,,-0.000544,0.02
,,,-0.000543,0.016
,,,-0.000542,0.018
,,,-0.000541,0.018
,,,-0.00054,0.018
,,,-0.000539,0.014
,,,-0.000538,0.014
,,,-0.000537,0.014
,,,-0.000536,0.01
,,,-0.000535,0.01
,,,-0.000534,0.01
,,,-0.000533,0.008
,,,-0.000532,0.006
,,,-0.000531,0.004
,,,-0.00053,0.002
,,,-0.000529,0.002
,,,-0.000528,0
,,,-0.000527,-0.002
,,,-0.000526,0
,,,-0.000525,-0.006
,,,-0.000524,-0.006
,,,-0.000523,-0.006
,,,-0.000522,-0.006
,,,-0.000521,-0.008
,,,-0.00052,-0.006
,,,-0.000519,-0.01
,,,-0.000518,-0.008
,,,-0.000517,-0.008
,,,-0.000516,-0.008
,,,-0.000515,-0.01
,,,-0.000514,-0.01
,,,-0.000513,-0.008
,,,-0.000512,-0.006
,,,-0.000511,-0.008
,,,-0.00051,-0.006
,,,-0.000509,-0.01
,,,-0.000508,-0.008
,,,-0.000507,-0.008
,,,-0.000506,-0.006
,,,-0.000505,-0.004
,,,-0.000504,-0.008
,,,-0.000503,0
,,,-0.000502,0
,,,-0.000501,-0.002
,,,-0.0005,0
,,,-0.000499,0
,,,-0.000498,-0.004
,,,-0.000497,0
,,,-0.000496,-0.006
,,,-0.000495,-0.006
,,,-0.000494,-0.008
,,,-0.000493,-0.008
,,,-0.000492,-0.01
,,,-0.000491,-0.008
,,,-0.00049,-0.008
,,,-0.000489,-0.006
,,,-0.000488,-0.008
,,,-0.000487,-0.006
,,,-0.000486,-0.008
,,,-0.000485,-0.008
,,,-0.000484,-0.01
,,,-0.000483,-0.01
,,,-0.000482,-0.008
,,,-0.000481,-0.006
,,,-0.00048,-0.008
,,,-0.000479,-0.008
,,,-0.000478,-0.006
,,,-0.000477,-0.006
,,,-0.000476,-0.004
,,,-0.000475,-0.006
,,,-0.000474,-0.006
,,,-0.000473,-0.008
,,,-0.000472,-0.008
,,,-0.000471,-0.012
,,,-0.00047,-0.004
,,,-0.000469,-0.01
,,,-0.000468,-0.012
,,,-0.000467,-0.008
,,,-0.000466,-0.01
,,,-0.000465,-0.008
,,,-0.000464,-0.008
,,,-0.000463,-0.006
,,,-0.000462,-0.006
,,,-0.000461,-0.008
,,,-0.00046,-0.008
,,,-0.000459,-0.006
,,,-0.000458,-0.01
,,,-0.000457,-0.01
,,,-0.000456,-0.008
,,,-0.000455,-0.008
,,,-0.000454,-0.006
,,,-0.000453,-0.008
,,,-0.000452,-0.008
,,,-0.000451,-0.008
,,,-0.00045,-0.006
,,,-0.000449,-0.008
,,,-0.000448,-0.008
,,,-0.000447,-0.008
,,,-0.000446,-0.006
,,,-0.000445,-0.01
,,,-0.000444,-0.01
,,,-0.000443,-0.008
,,,-0.000442,-0.008
,,,-0.000441,-0.006
,,,-0.00044,-0.01
,,,-0.000439,-0.006
,,,-0.000438,-0.008
,,,-0.000437,-0.008
,,,-0.000436,-0.006
,,,-0.000435,-0.012
,,,-0.000434,-0.008
,,,-0.000433,-0.008
,,,-0.000432,-0.006
,,,-0.000431,-0.008
,,,-0.00043,-0.008
,,,-0.000429,-0.006
,,,-0.000428,-0.008
,,,-0.000427,-0.006
,,,-0.000426,-0.004
,,,-0.000425,-0.01
,,,-0.000424,-0.004
,,,-0.000423,-0.006
,,,-0.000422,-0.01
,,,-0.000421,-0.01
,,,-0.00042,-0.008
,,,-0.000419,-0.006
,,,-0.000418,-0.008
,,,-0.000417,-0.01
,,,-0.000416,-0.006
,,,-0.000415,-0.008
,,,-0.000414,-0.012
,,,-0.000413,-0.006
,,,-0.000412,-0.006
,,,-0.000411,-0.006
,,,-0.00041,-0.01
,,,-0.000409,-0.006
,,,-0.000408,-0.01
,,,-0.000407,-0.008
,,,-0.000406,-0.006
,,,-0.000405,-0.006
,,,-0.000404,-0.006
,,,-0.000403,-0.002
,,,-0.000402,0
,,,-0.000401,-0.002
,,,-0.0004,0.002
,,,-0.000399,0.002
,,,-0.000398,0.004
,,,-0.000397,0.004
,,,-0.000396,0.006
,,,-0.000395,0.004
,,,-0.000394,0.006
,,,-0.000393,0.008
,,,-0.000392,0.01
,,,-0.000391,0.008
,,,-0.00039,0.012
,,,-0.000389,0.012
,,,-0.000388,0.01
,,,-0.000387,0.012
,,,-0.000386,0.01
,,,-0.000385,0.01
,,,-0.000384,0.01
,,,-0.000383,0.012
,,,-0.000382,0.01
,,,-0.000381,0.01
,,,-0.00038,0.01
,,,-0.000379,0.006
,,,-0.000378,0.008
,,,-0.000377,0.006
,,,-0.000376,0.004
,,,-0.000375,0.002
,,,-0.000374,0
,,,-0.000373,-0.002
,,,-0.000372,-0.006
,,,-0.000371,-0.008
,,,-0.00037,-0.006
,,,-0.000369,-0.008
,,,-0.000368,-0.008
,,,-0.000367,-0.008
,,,-0.000366,-0.008
,,,-0.000365,-0.008
,,,-0.000364,-0.008
,,,-0.000363,-0.006
,,,-0.000362,-0.01
,,,-0.000361,-0.008
,,,-0.00036,-0.008
,,,-0.000359,-0.008
,,,-0.000358,-0.01
,,,-0.000357,-0.008
,,,-0.000356,-0.006
,,,-0.000355,-0.006
,,,-0.000354,-0.006
,,,-0.000353,-0.008
,,,-0.000352,-0.008
,,,-0.000351,-0.006
,,,-0.00035,-0.006
,,,-0.000349,-0.008
,,,-0.000348,-0.008
,,,-0.000347,-0.008
,,,-0.000346,-0.01
,,,-0.000345,-0.008
,,,-0.000344,-0.01
,,,-0.000343,-0.012
,,,-0.000342,-0.018
,,,-0.000341,-0.022
,,,-0.00034,-0.03
,,,-0.000339,-0.03
,,,-0.000338,-0.006
,,,-0.000337,0.014
,,,-0.000336,0.032
,,,-0.000335,0.054
,,,-0.000334,0.078
,,,-0.000333,0.1
,,,-0.000332,0.118
,,,-0.000331,0.142
,,,-0.00033,0.14
,,,-0.000329,0.12
,,,-0.000328,0.098
,,,-0.000327,0.078
,,,-0.000326,0.058
,,,-0.000325,0.034
,,,-0.000324,0.014
,,,-0.000323,-0.01
,,,-0.000322,-0.032
,,,-0.000321,-0.052
,,,-0.00032,-0.042
,,,-0.000319,-0.032
,,,-0.000318,-0.024
,,,-0.000317,-0.016
,,,-0.000316,-0.014
,,,-0.000315,-0.008
,,,-0.000314,-0.008
,,,-0.000313,-0.006
,,,-0.000312,-0.01
,,,-0.000311,-0.008
,,,-0.00031,-0.008
,,,-0.000309,-0.008
,,,-0.000308,-0.008
,,,-0.000307,-0.008
,,,-0.000306,-0.008
,,,-0.000305,-0.008
,,,-0.000304,-0.008
,,,-0.000303,-0.008
,,,-0.000302,-0.006
,,,-0.000301,-0.008
,,,-0.0003,-0.008
,,,-0.000299,-0.006
,,,-0.000298,-0.008
,,,-0.000297,-0.01
,,,-0.000296,-0.01
,,,-0.000295,-0.008
,,,-0.000294,-0.006
,,,-0.000293,-0.008
,,,-0.000292,-0.008
,,,-0.000291,-0.008
,,,-0.00029,-0.01
,,,-0.000289,-0.01
,,,-0.000288,-0.008
,,,-0.000287,-0.008
,,,-0.000286,-0.01
,,,-0.000285,-0.008
,,,-0.000284,-0.01
,,,-0.000283,-0.01
,,,-0.000282,-0.01
,,,-0.000281,-0.006
,,,-0.00028,-0.008
,,,-0.000279,-0.004
,,,-0.000278,-0.006
,,,-0.000277,-0.01
,,,-0.000276,-0.01
,,,-0.000275,-0.008
,,,-0.000274,-0.008
,,,-0.000273,-0.008
,,,-0.000272,-0.008
,,,-0.000271,-0.008
,,,-0.00027,-0.01
,,,-0.000269,-0.008
,,,-0.000268,-0.006
,,,-0.000267,-0.01
,,,-0.000266,-0.008
,,,-0.000265,-0.006
,,,-0.000264,-0.004
,,,-0.000263,-0.006
,,,-0.000262,-0.004
,,,-0.000261,-0.004
,,,-0.00026,-0.004
,,,-0.000259,0
,,,-0.000258,0
,,,-0.000257,0.002
,,,-0.000256,0.002
,,,-0.000255,0.004
,,,-0.000254,0.006
,,,-0.000253,0.004
,,,-0.000252,0.008
,,,-0.000251,0.006
,,,-0.00025,0.004
,,,-0.000249,0.006
,,,-0.000248,0.01
,,,-0.000247,0.006
,,,-0.000246,0.008
,,,-0.000245,0.012
,,,-0.000244,0.01
,,,-0.000243,0.014
,,,-0.000242,0.012
,,,-0.000241,0.012
,,,-0.00024,0.012
,,,-0.000239,0.014
,,,-0.000238,0.014
,,,-0.000237,0.014
,,,-0.000236,0.012
,,,-0.000235,0.014
,,,-0.000234,0.016
,,,-0.000233,0.018
,,,-0.000232,0.018
,,,-0.000231,0.02
,,,-0.00023,0.02
,,,-0.000229,0.018
,,,-0.000228,0.02
,,,-0.000227,0.018
,,,-0.000226,0.018
,,,-0.000225,0.016
,,,-0.000224,0.02
,,,-0.000223,0.02
,,,-0.000222,0.02
,,,-0.000221,0.02
,,,-0.00022,0.02
,,,-0.000219,0.02
,,,-0.000218,0.022
,,,-0.000217,0.022
,,,-0.000216,0.022
,,,-0.000215,0.02
,,,-0.000214,0.018
,,,-0.000213,0.02
,,,-0.000212,0.02
,,,-0.000211,0.02
,,,-0.00021,0.018
,,,-0.000209,0.018
,,,-0.000208,0.02
,,,-0.000207,0.018
,,,-0.000206,0.014
,,,-0.000205,0.016
,,,-0.000204,0.012
,,,-0.000203,0.012
,,,-0.000202,0.01
,,,-0.000201,0.008
,,,-0.0002,0.006
,,,-0.000199,0.006
,,,-0.000198,0.006
,,,-0.000197,0.004
,,,-0.000196,0.002
,,,-0.000195,0
,,,-0.000194,0
,,,-0.000193,-0.006
,,,-0.000192,-0.002
,,,-0.000191,-0.006
,,,-0.00019,-0.008
,,,-0.000189,-0.008
,,,-0.000188,-0.008
,,,-0.000187,-0.006
,,,-0.000186,-0.008
,,,-0.000185,-0.006
,,,-0.000184,-0.008
,,,-0.000183,-0.006
,,,-0.000182,-0.004
,,,-0.000181,-0.008
,,,-0.00018,-0.008
,,,-0.000179,-0.008
,,,-0.000178,-0.008
,,,-0.000177,-0.008
,,,-0.000176,-0.008
,,,-0.000175,-0.006
,,,-0.000174,-0.006
,,,-0.000173,-0.006
,,,-0.000172,-0.004
,,,-0.000171,-0.002
,,,-0.00017,-0.002
,,,-0.000169,0
,,,-0.000168,-0.002
,,,-0.000167,0
,,,-0.000166,0
,,,-0.000165,-0.002
,,,-0.000164,-0.004
,,,-0.000163,-0.006
,,,-0.000162,-0.006
,,,-0.000161,-0.008
,,,-0.00016,-0.008
,,,-0.000159,-0.008
,,,-0.000158,-0.006
,,,-0.000157,-0.006
,,,-0.000156,-0.006
,,,-0.000155,-0.008
,,,-0.000154,-0.01
,,,-0.000153,-0.008
,,,-0.000152,-0.008
,,,-0.000151,-0.008
,,,-0.00015,-0.008
,,,-0.000149,-0.008
,,,-0.000148,-0.008
,,,-0.000147,-0.008
,,,-0.000146,-0.006
,,,-0.000145,-0.006
,,,-0.000144,-0.008
,,,-0.000143,-0.006
,,,-0.000142,-0.008
,,,-0.000141,-0.008
,,,-0.00014,-0.006
,,,-0.000139,-0.008
,,,-0.000138,-0.008
,,,-0.000137,-0.006
,,,-0.000136,-0.006
,,,-0.000135,-0.006
,,,-0.000134,-0.008
,,,-0.000133,-0.008
,,,-0.000132,-0.008
,,,-0.000131,-0.008
,,,-0.00013,-0.008
,,,-0.000129,-0.008
,,,-0.000128,-0.01
,,,-0.000127,-0.008
,,,-0.000126,-0.006
,,,-0.000125,-0.008
,,,-0.000124,-0.01
,,,-0.000123,-0.006
,,,-0.000122,-0.008
,,,-0.000121,-0.008
,,,-0.00012,-0.004
,,,-0.000119,-0.008
,,,-0.000118,-0.006
,,,-0.000117,-0.008
,,,-0.000116,-0.008
,,,-0.000115,-0.008
,,,-0.000114,-0.014
,,,-0.000113,-0.01
,,,-0.000112,-0.006
,,,-0.000111,-0.006
,,,-0.00011,-0.008
,,,-0.000109,-0.008
,,,-0.000108,-0.008
,,,-0.000107,-0.008
,,,-0.000106,-0.008
,,,-0.000105,-0.006
,,,-0.000104,-0.01
,,,-0.000103,-0.01
,,,-0.000102,-0.006
,,,-0.000101,-0.008
,,,-0.0001,-0.008
,,,-0.000099,-0.008
,,,-0.000098,-0.006
,,,-0.000097,-0.008
,,,-0.000096,-0.008
,,,-0.000095,-0.008
,,,-0.000094,-0.008
,,,-0.000093,-0.008
,,,-0.000092,-0.012
,,,-0.000091,-0.008
,,,-0.00009,-0.006
,,,-0.000089,-0.01
,,,-0.000088,-0.01
,,,-0.000087,-0.01
,,,-0.000086,-0.008
,,,-0.000085,-0.008
,,,-0.000084,-0.01
,,,-0.000083,-0.006
,,,-0.000082,-0.01
,,,-0.000081,-0.008
,,,-0.00008,-0.008
,,,-0.000079,-0.008
,,,-0.000078,-0.006
,,,-0.000077,-0.008
,,,-0.000076,-0.006
,,,-0.000075,-0.008
,,,-0.000074,-0.008
,,,-0.000073,-0.004
,,,-0.000072,-0.008
,,,-0.000071,-0.004
,,,-0.00007,-0.002
,,,-0.000069,-0.002
,,,-0.000068,-0.002
,,,-0.000067,0
,,,-0.000066,0.002
,,,-0.000065,0.004
,,,-0.000064,0.002
,,,-0.000063,0.006
,,,-0.000062,0.006
,,,-0.000061,0.006
,,,-0.00006,0.01
,,,-0.000059,0.008
,,,-0.000058,0.008
,,,-0.000057,0.01
,,,-0.000056,0.012
,,,-0.000055,0.01
,,,-0.000054,0.01
,,,-0.000053,0.012
,,,-0.000052,0.012
,,,-0.000051,0.01
,,,-0.00005,0.01
,,,-0.000049,0.012
,,,-0.000048,0.01
,,,-0.000047,0.012
,,,-0.000046,0.008
,,,-0.000045,0.01
,,,-0.000044,0.006
,,,-0.000043,0.004
,,,-0.000042,0.002
,,,-0.000041,0
,,,-0.00004,-0.004
,,,-0.000039,-0.004
,,,-0.000038,-0.01
,,,-0.000037,-0.006
,,,-0.000036,-0.006
,,,-0.000035,-0.008
,,,-0.000034,-0.008
,,,-0.000033,-0.006
,,,-0.000032,-0.008
,,,-0.000031,-0.006
,,,-0.00003,-0.01
,,,-0.000029,-0.008
,,,-0.000028,-0.01
,,,-0.000027,-0.006
,,,-0.000026,-0.008
,,,-0.000025,-0.01
,,,-0.000024,-0.01
,,,-0.000023,-0.006
,,,-0.000022,-0.006
,,,-0.000021,-0.006
,,,-0.00002,-0.008
,,,-0.000019,-0.01
,,,-0.000018,-0.008
,,,-0.000017,-0.006
,,,-0.000016,-0.008
,,,-0.000015,-0.008
,,,-0.000014,-0.008
,,,-0.000013,-0.008
,,,-0.000012,-0.01
,,,-0.000011,-0.008
,,,-0.00001,-0.01
,,,-0.000009,-0.016
,,,-0.000008,-0.02
,,,-0.000007,-0.028
,,,-0.000006,-0.036
,,,-0.000005,-0.014
,,,-0.000004,0.008
,,,-0.000003,0.028
,,,-0.000002,0.054
,,,-0.000001,0.07
,,,0,0.094
,,,0.000001,0.116
,,,0.000002,0.136
,,,0.000003,0.148
,,,0.000004,0.126
,,,0.000005,0.104
,,,0.000006,0.084
,,,0.000007,0.06
,,,0.000008,0.042
,,,0.000009,0.02
,,,0.00001,-0.004
,,,0.000011,-0.022
,,,0.000012,-0.042
,,,0.000013,-0.046
,,,0.000014,-0.036
,,,0.000015,-0.028
,,,0.000016,-0.016
,,,0.000017,-0.016
,,,0.000018,-0.01
,,,0.000019,-0.01
,,,0.00002,-0.008
,,,0.000021,-0.01
,,,0.000022,-0.01
,,,0.000023,-0.008
,,,0.000024,-0.006
,,,0.000025,-0.008
,,,0.000026,-0.008
,,,0.000027,-0.008
,,,0.000028,-0.01
,,,0.000029,-0.008
,,,0.00003,-0.008
,,,0.000031,-0.008
,,,0.000032,-0.008
,,,0.000033,-0.006
,,,0.000034,-0.008
,,,0.000035,-0.008
,,,0.000036,-0.006
,,,0.000037,-0.008
,,,0.000038,-0.008
,,,0.000039,-0.006
,,,0.00004,-0.006
,,,0.000041,-0.008
,,,0.000042,-0.004
,,,0.000043,-0.008
,,,0.000044,-0.006
,,,0.000045,-0.01
,,,0.000046,-0.008
,,,0.000047,-0.008
,,,0.000048,-0.008
,,,0.000049,-0.008
,,,0.00005,-0.008
,,,0.000051,-0.008
,,,0.000052,-0.008
,,,0.000053,-0.01
,,,0.000054,-0.008
,,,0.000055,-0.008
,,,0.000056,-0.01
,,,0.000057,-0.008
,,,0.000058,-0.012
,,,0.000059,-0.006
,,,0.00006,-0.008
,,,0.000061,-0.008
,,,0.000062,-0.006
,,,0.000063,-0.008
,,,0.000064,-0.006
,,,0.000065,-0.006
,,,0.000066,-0.008
,,,0.000067,-0.01
,,,0.000068,-0.008
,,,0.000069,-0.004
,,,0.00007,-0.004
,,,0.000071,-0.004
,,,0.000072,-0.002
,,,0.000073,-0.002
,,,0.000074,0
,,,0.000075,0.004
,,,0.000076,0
,,,0.000077,0
,,,0.000078,0.004
,,,0.000079,0.004
,,,0.00008,0.004
,,,0.000081,0.006
,,,0.000082,0.004
,,,0.000083,0.006
,,,0.000084,0.006
,,,0.000085,0.008
,,,0.000086,0.008
,,,0.000087,0.01
,,,0.000088,0.01
,,,0.000089,0.01
,,,0.00009,0.01
,,,0.000091,0.014
,,,0.000092,0.012
,,,0.000093,0.012
,,,0.000094,0.012
,,,0.000095,0.014
,,,0.000096,0.014
,,,0.000097,0.016
,,,0.000098,0.014
,,,0.000099,0.016
,,,0.0001,0.016
,,,0.000101,0.022
,,,0.000102,0.018
,,,0.000103,0.018
,,,0.000104,0.02
,,,0.000105,0.02
,,,0.000106,0.018
,,,0.000107,0.018
,,,0.000108,0.02
,,,0.000109,0.018
,,,0.00011,0.022
,,,0.000111,0.022
,,,0.000112,0.02
,,,0.000113,0.02
,,,0.000114,0.02
,,,0.000115,0.024
,,,0.000116,0.018
,,,0.000117,0.02
,,,0.000118,0.02
,,,0.000119,0.02
,,,0.00012,0.02
,,,0.000121,0.022
,,,0.000122,0.018
,,,0.000123,0.018
,,,0.000124,0.016
,,,0.000125,0.018
,,,0.000126,0.014
,,,0.000127,0.016
,,,0.000128,0.016
,,,0.000129,0.012
,,,0.00013,0.012
,,,0.000131,0.012
,,,0.000132,0.012
,,,0.000133,0.006
,,,0.000134,0.008
,,,0.000135,0.008
,,,0.000136,0.004
,,,0.000137,0.004
,,,0.000138,0.004
,,,0.000139,-0.002
,,,0.00014,-0.002
,,,0.000141,-0.004
,,,0.000142,-0.008
,,,0.000143,-0.006
,,,0.000144,-0.008
,,,0.000145,-0.01
,,,0.000146,-0.006
,,,0.000147,-0.006
,,,0.000148,-0.008
,,,0.000149,-0.008
,,,0.00015,-0.006
,,,0.000151,-0.008
,,,0.000152,-0.01
,,,0.000153,-0.012
,,,0.000154,-0.01
,,,0.000155,-0.012
,,,0.000156,-0.008
,,,0.000157,-0.008
,,,0.000158,-0.008
,,,0.000159,-0.006
,,,0.00016,-0.006
,,,0.000161,-0.004
,,,0.000162,-0.006
,,,0.000163,-0.006
,,,0.000164,-0.002
,,,0.000165,-0.002
,,,0.000166,0
,,,0.000167,-0.002
,,,0.000168,-0.002
,,,0.000169,-0.004
,,,0.00017,-0.004
,,,0.000171,-0.004
,,,0.000172,-0.004
,,,0.000173,-0.006
,,,0.000174,-0.008
,,,0.000175,-0.008
,,,0.000176,-0.01
,,,0.000177,-0.008
,,,0.000178,-0.008
,,,0.000179,-0.008
,,,0.00018,-0.006
,,,0.000181,-0.008
,,,0.000182,-0.008
,,,0.000183,-0.01
,,,0.000184,-0.006
,,,0.000185,-0.006
,,,0.000186,-0.008
,,,0.000187,-0.008
,,,0.000188,-0.008
,,,0.000189,-0.008
,,,0.00019,-0.01
,,,0.000191,-0.008
,,,0.000192,-0.008
,,,0.000193,-0.01
,,,0.000194,-0.008
,,,0.000195,-0.008
,,,0.000196,-0.008
,,,0.000197,-0.008
,,,0.000198,-0.006
,,,0.000199,-0.008
,,,0.0002,-0.006
,,,0.000201,-0.01
,,,0.000202,-0.01
,,,0.000203,-0.01
,,,0.000204,-0.008
,,,0.000205,-0.008
,,,0.000206,-0.01
,,,0.000207,-0.006
,,,0.000208,-0.006
,,,0.000209,-0.008
,,,0.00021,-0.006
,,,0.000211,-0.006
,,,0.000212,-0.008
,,,0.000213,-0.006
,,,0.000214,-0.006
,,,0.000215,-0.008
,,,0.000216,-0.008
,,,0.000217,-0.006
,,,0.000218,-0.01
,,,0.000219,-0.01
,,,0.00022,-0.006
,,,0.000221,-0.008
,,,0.000222,-0.006
,,,0.000223,-0.01
,,,0.000224,-0.01
,,,0.000225,-0.008
,,,0.000226,-0.008
,,,0.000227,-0.008
,,,0.000228,-0.01
,,,0.000229,-0.01
,,,0.00023,-0.01
,,,0.000231,-0.01
,,,0.000232,-0.008
,,,0.000233,-0.006
,,,0.000234,-0.006
,,,0.000235,-0.008
,,,0.000236,-0.008
,,,0.000237,-0.008
,,,0.000238,-0.01
,,,0.000239,-0.008
,,,0.00024,-0.008
,,,0.000241,-0.008
,,,0.000242,-0.008
,,,0.000243,-0.008
,,,0.000244,-0.01
,,,0.000245,-0.008
,,,0.000246,-0.006
,,,0.000247,-0.006
,,,0.000248,-0.008
,,,0.000249,-0.008
,,,0.00025,-0.008
,,,0.000251,-0.01
,,,0.000252,-0.008
,,,0.000253,-0.008
,,,0.000254,-0.01
,,,0.000255,-0.01
,,,0.000256,-0.008
,,,0.000257,-0.008
,,,0.000258,-0.008
,,,0.000259,-0.008
,,,0.00026,-0.006
,,,0.000261,-0.006
,,,0.000262,-0.004
,,,0.000263,-0.002
,,,0.000264,-0.004
,,,0.000265,-0.004
,,,0.000266,0
,,,0.000267,-0.002
,,,0.000268,0
,,,0.000269,0.004
,,,0.00027,0.004
,,,0.000271,0.006
,,,0.000272,0.006
,,,0.000273,0.01
,,,0.000274,0.006
,,,0.000275,0.008
,,,0.000276,0.01
,,,0.000277,0.01
,,,0.000278,0.01
,,,0.000279,0.01
,,,0.00028,0.012
,,,0.000281,0.012
,,,0.000282,0.01
,,,0.000283,0.012
,,,0.000284,0.012
,,,0.000285,0.01
,,,0.000286,0.01
,,,0.000287,0.008
,,,0.000288,0.01
,,,0.000289,0.006
,,,0.00029,0.002
,,,0.000291,0.002
,,,0.000292,0
,,,0.000293,-0.002
,,,0.000294,-0.004
,,,0.000295,-0.008
,,,0.000296,-0.01
,,,0.000297,-0.008
,,,0.000298,-0.008
,,,0.000299,-0.008
,,,0.0003,-0.008
,,,0.000301,-0.008
,,,0.000302,-0.008
,,,0.000303,-0.008
,,,0.000304,-0.01
,,,0.000305,-0.008
,,,0.000306,-0.006
,,,0.000307,-0.006
,,,0.000308,-0.008
,,,0.000309,-0.006
,,,0.00031,-0.008
,,,0.000311,-0.008
,,,0.000312,-0.01
,,,0.000313,-0.008
,,,0.000314,-0.01
,,,0.000315,-0.008
,,,0.000316,-0.006
,,,0.000317,-0.01
,,,0.000318,-0.008
,,,0.000319,-0.01
,,,0.00032,-0.006
,,,0.000321,-0.01
,,,0.000322,-0.01
,,,0.000323,-0.01
,,,0.000324,-0.016
,,,0.000325,-0.02
,,,0.000326,-0.026
,,,0.000327,-0.034
,,,0.000328,-0.022
,,,0.000329,0.002
,,,0.00033,0.02
,,,0.000331,0.046
,,,0.000332,0.066
,,,0.000333,0.084
,,,0.000334,0.104
,,,0.000335,0.126
,,,0.000336,0.148
,,,0.000337,0.132
,,,0.000338,0.11
,,,0.000339,0.09
,,,0.00034,0.07
,,,0.000341,0.048
,,,0.000342,0.03
,,,0.000343,0.006
,,,0.000344,-0.014
,,,0.000345,-0.034
,,,0.000346,-0.054
,,,0.000347,-0.038
,,,0.000348,-0.03
,,,0.000349,-0.024
,,,0.00035,-0.016
,,,0.000351,-0.01
,,,0.000352,-0.01
,,,0.000353,-0.01
,,,0.000354,-0.01
,,,0.000355,-0.006
,,,0.000356,-0.006
,,,0.000357,-0.008
,,,0.000358,-0.008
,,,0.000359,-0.008
,,,0.00036,-0.008
,,,0.000361,-0.008
,,,0.000362,-0.008
,,,0.000363,-0.008
,,,0.000364,-0.006
,,,0.000365,-0.006
,,,0.000366,-0.006
,,,0.000367,-0.006
,,,0.000368,-0.008
,,,0.000369,-0.006
,,,0.00037,-0.006
,,,0.000371,-0.008
,,,0.000372,-0.008
,,,0.000373,-0.01
,,,0.000374,-0.006
,,,0.000375,-0.01
,,,0.000376,-0.008
,,,0.000377,-0.01
,,,0.000378,-0.008
,,,0.000379,-0.01
,,,0.00038,-0.006
,,,0.000381,-0.008
,,,0.000382,-0.006
,,,0.000383,-0.008
,,,0.000384,-0.01
,,,0.000385,-0.006
,,,0.000386,-0.006
,,,0.000387,-0.01
,,,0.000388,-0.006
,,,0.000389,-0.008
,,,0.00039,-0.008
,,,0.000391,-0.008
,,,0.000392,-0.006
,,,0.000393,-0.01
,,,0.000394,-0.008
,,,0.000395,-0.006
,,,0.000396,-0.008
,,,0.000397,-0.008
,,,0.000398,-0.012
,,,0.000399,-0.01
,,,0.0004,-0.012
,,,0.000401,-0.008
,,,0.000402,-0.006
,,,0.000403,-0.004
,,,0.000404,-0.006
,,,0.000405,-0.002
,,,0.000406,-0.004
,,,0.000407,0
,,,0.000408,0
,,,0.000409,0.002
,,,0.00041,0.002
,,,0.000411,0.002
,,,0.000412,0.002
,,,0.000413,0.002
,,,0.000414,0.004
,,,0.000415,0.006
,,,0.000416,0.006
,,,0.000417,0.01
,,,0.000418,0.008
,,,0.000419,0.006
,,,0.00042,0.01
,,,0.000421,0.01
,,,0.000422,0.008
,,,0.000423,0.01
,,,0.000424,0.012
,,,0.000425,0.01
,,,0.000426,0.01
,,,0.000427,0.014
,,,0.000428,0.014
,,,0.000429,0.014
,,,0.00043,0.016
,,,0.000431,0.016
,,,0.000432,0.016
,,,0.000433,0.016
,,,0.000434,0.016
,,,0.000435,0.018
,,,0.000436,0.016
,,,0.000437,0.016
,,,0.000438,0.018
,,,0.000439,0.016
,,,0.00044,0.024
,,,0.000441,0.022
,,,0.000442,0.022
,,,0.000443,0.02
,,,0.000444,0.02
,,,0.000445,0.02
,,,0.000446,0.02
,,,0.000447,0.02
,,,0.000448,0.02
,,,0.000449,0.018
,,,0.00045,0.022
,,,0.000451,0.02
,,,0.000452,0.02
,,,0.000453,0.022
,,,0.000454,0.02
,,,0.000455,0.02
,,,0.000456,0.018
,,,0.000457,0.02
,,,0.000458,0.02
,,,0.000459,0.016
,,,0.00046,0.014
,,,0.000461,0.014
,,,0.000462,0.014
,,,0.000463,0.012
,,,0.000464,0.012
,,,0.000465,0.01
,,,0.000466,0.01
,,,0.000467,0.01
,,,0.000468,0.006
,,,0.000469,0.002
,,,0.00047,0.004
,,,0.000471,0.002
,,,0.000472,0.002
,,,0.000473,-0.002
,,,0.000474,-0.004
,,,0.000475,-0.008
,,,0.000476,-0.006
,,,0.000477,-0.006
,,,0.000478,-0.006
,,,0.000479,-0.006
,,,0.00048,-0.006
,,,0.000481,-0.008
,,,0.000482,-0.01
,,,0.000483,-0.01
,,,0.000484,-0.006
,,,0.000485,-0.01
,,,0.000486,-0.008
,,,0.000487,-0.008
,,,0.000488,-0.008
,,,0.000489,-0.006
,,,0.00049,-0.008
,,,0.000491,-0.006
,,,0.000492,-0.006
,,,0.000493,-0.006
,,,0.000494,-0.008
,,,0.000495,-0.006
,,,0.000496,-0.004
,,,0.000497,-0.006
,,,0.000498,-0.002
,,,0.000499,-0.002
,,,0.0005,-0.004
,,,0.000501,0
,,,0.000502,-0.004
,,,0.000503,-0.004
,,,0.000504,-0.006
,,,0.000505,-0.008
,,,0.000506,-0.008
,,,0.000507,-0.008
,,,0.000508,-0.008
,,,0.000509,-0.008
,,,0.00051,-0.012
,,,0.000511,-0.012
,,,0.000512,-0.01
,,,0.000513,-0.008
,,,0.000514,-0.008
,,,0.000515,-0.006
,,,0.000516,-0.006
,,,0.000517,-0.006
,,,0.000518,-0.008
,,,0.000519,-0.01
,,,0.00052,-0.01
,,,0.000521,-0.01
,,,0.000522,-0.006
,,,0.000523,-0.01
,,,0.000524,-0.008
,,,0.000525,-0.008
,,,0.000526,-0.006
,,,0.000527,-0.008
,,,0.000528,-0.01
,,,0.000529,-0.006
,,,0.00053,-0.006
,,,0.000531,-0.006
,,,0.000532,-0.01
,,,0.000533,-0.008
,,,0.000534,-0.01
,,,0.000535,-0.01
,,,0.000536,-0.008
,,,0.000537,-0.006
,,,0.000538,-0.008
,,,0.000539,-0.006
,,,0.00054,-0.006
,,,0.000541,-0.008
,,,0.000542,-0.008
,,,0.000543,-0.008
,,,0.000544,-0.012
,,,0.000545,-0.01
,,,0.000546,-0.01
,,,0.000547,-0.006
,,,0.000548,-0.008
,,,0.000549,-0.006
,,,0.00055,-0.01
,,,0.000551,-0.008
,,,0.000552,-0.006
,,,0.000553,-0.008
,,,0.000554,-0.008
,,,0.000555,-0.008
,,,0.000556,-0.008
,,,0.000557,-0.01
,,,0.000558,-0.008
,,,0.000559,-0.01
,,,0.00056,-0.008
,,,0.000561,-0.008
,,,0.000562,-0.008
,,,0.000563,-0.006
,,,0.000564,-0.008
,,,0.000565,-0.008
,,,0.000566,-0.006
,,,0.000567,-0.006
,,,0.000568,-0.006
,,,0.000569,-0.008
,,,0.00057,-0.006
,,,0.000571,-0.008
,,,0.000572,-0.008
,,,0.000573,-0.008
,,,0.000574,-0.01
,,,0.000575,-0.008
,,,0.000576,-0.008
,,,0.000577,-0.01
,,,0.000578,-0.01
,,,0.000579,-0.008
,,,0.00058,-0.008
,,,0.000581,-0.01
,,,0.000582,-0.008
,,,0.000583,-0.008
,,,0.000584,-0.01
,,,0.000585,-0.008
,,,0.000586,-0.006
,,,0.000587,-0.008
,,,0.000588,-0.006
,,,0.000589,-0.006
,,,0.00059,-0.008
,,,0.000591,-0.01
,,,0.000592,-0.006
,,,0.000593,-0.006
,,,0.000594,-0.008
,,,0.000595,-0.004
,,,0.000596,-0.004
,,,0.000597,-0.002
,,,0.000598,-0.002
,,,0.000599,0
,,,0.0006,0
,,,0.000601,0.002
,,,0.000602,0.004
,,,0.000603,0.006
,,,0.000604,0.004
,,,0.000605,0.004
,,,0.000606,0.006
,,,0.000607,0.006
,,,0.000608,0.01
,,,0.000609,0.01
,,,0.00061,0.01
,,,0.000611,0.008
,,,0.000612,0.012
,,,0.000613,0.012
,,,0.000614,0.01
,,,0.000615,0.012
,,,0.000616,0.012
,,,0.000617,0.01
,,,0.000618,0.01
,,,0.000619,0.01
,,,0.00062,0.008
,,,0.000621,0.008
,,,0.000622,0.008
,,,0.000623,0.004
,,,0.000624,0.004
,,,0.000625,0.002
,,,0.000626,0
,,,0.000627,-0.004
,,,0.000628,-0.004
,,,0.000629,-0.008
,,,0.00063,-0.01
,,,0.000631,-0.01
,,,0.000632,-0.006
,,,0.000633,-0.01
,,,0.000634,-0.008
,,,0.000635,-0.01
,,,0.000636,-0.006
,,,0.000637,-0.008
,,,0.000638,-0.008
,,,0.000639,-0.008
,,,0.00064,-0.008
,,,0.000641,-0.008
,,,0.000642,-0.008
,,,0.000643,-0.004
,,,0.000644,-0.008
,,,0.000645,-0.008
,,,0.000646,-0.008
,,,0.000647,-0.008
,,,0.000648,-0.006
,,,0.000649,-0.006
,,,0.00065,-0.008
,,,0.000651,-0.006
,,,0.000652,-0.006
,,,0.000653,-0.008
,,,0.000654,-0.01
,,,0.000655,-0.012
,,,0.000656,-0.012
,,,0.000657,-0.014
,,,0.000658,-0.016
,,,0.000659,-0.024
,,,0.00066,-0.03
,,,0.000661,-0.026
,,,0.000662,-0.004
,,,0.000663,0.016
,,,0.000664,0.034
,,,0.000665,0.06
,,,0.000666,0.08
,,,0.000667,0.1
,,,0.000668,0.122
,,,0.000669,0.14
,,,0.00067,0.14
,,,0.000671,0.118
,,,0.000672,0.098
,,,0.000673,0.078
,,,0.000674,0.058
,,,0.000675,0.034
,,,0.000676,0.012
,,,0.000677,-0.008
,,,0.000678,-0.03
,,,0.000679,-0.052
,,,0.00068,-0.044
,,,0.000681,-0.032
,,,0.000682,-0.028
,,,0.000683,-0.02
,,,0.000684,-0.012
,,,0.000685,-0.008
,,,0.000686,-0.006
,,,0.000687,-0.01
,,,0.000688,-0.006
,,,0.000689,-0.006
,,,0.00069,-0.01
,,,0.000691,-0.008
,,,0.000692,-0.008
,,,0.000693,-0.006
,,,0.000694,-0.006
,,,0.000695,-0.008
,,,0.000696,-0.008
,,,0.000697,-0.006
,,,0.000698,-0.008
,,,0.000699,-0.006
,,,0.0007,-0.008
,,,0.000701,-0.008
,,,0.000702,-0.008
,,,0.000703,-0.008
,,,0.000704,-0.008
,,,0.000705,-0.008
,,,0.000706,-0.008
,,,0.000707,-0.006
,,,0.000708,-0.008
,,,0.000709,-0.008
,,,0.00071,-0.004
,,,0.000711,-0.006
,,,0.000712,-0.008
,,,0.000713,-0.006
,,,0.000714,-0.008
,,,0.000715,-0.006
,,,0.000716,-0.008
,,,0.000717,-0.01
,,,0.000718,-0.006
,,,0.000719,-0.008
,,,0.00072,-0.006
,,,0.000721,-0.01
,,,0.000722,-0.008
,,,0.000723,-0.006
,,,0.000724,-0.006
,,,0.000725,-0.006
,,,0.000726,-0.008
,,,0.000727,-0.008
,,,0.000728,-0.008
,,,0.000729,-0.01
,,,0.00073,-0.006
,,,0.000731,-0.008
,,,0.000732,-0.008
,,,0.000733,-0.01
,,,0.000734,-0.006
,,,0.000735,-0.006
,,,0.000736,-0.006
,,,0.000737,-0.004
,,,0.000738,-0.002
,,,0.000739,-0.002
,,,0.00074,-0.004
,,,0.000741,-0.002
,,,0.000742,-0.002
,,,0.000743,0.002
,,,0.000744,0.002
,,,0.000745,0.004
,,,0.000746,0.004
,,,0.000747,0.004
,,,0.000748,0.008
,,,0.000749,0.006
,,,0.00075,0.008
,,,0.000751,0.006
,,,0.000752,0.008
,,,0.000753,0.012
,,,0.000754,0.01
,,,0.000755,0.01
,,,0.000756,0.01
,,,0.000757,0.01
,,,0.000758,0.012
,,,0.000759,0.012
,,,0.00076,0.014
,,,0.000761,0.014
,,,0.000762,0.014
,,,0.000763,0.014
,,,0.000764,0.014
,,,0.000765,0.014
,,,0.000766,0.016
,,,0.000767,0.016
,,,0.000768,0.018
,,,0.000769,0.018
,,,0.00077,0.018
,,,0.000771,0.018
,,,0.000772,0.018
,,,0.000773,0.02
,,,0.000774,0.022
,,,0.000775,0.02
,,,0.000776,0.02
,,,0.000777,0.018
,,,0.000778,0.02
,,,0.000779,0.02
,,,0.00078,0.02
,,,0.000781,0.02
,,,0.000782,0.02
,,,0.000783,0.022
,,,0.000784,0.02
,,,0.000785,0.02
,,,0.000786,0.02
,,,0.000787,0.022
,,,0.000788,0.02
,,,0.000789,0.02
,,,0.00079,0.02
,,,0.000791,0.02
,,,0.000792,0.018
,,,0.000793,0.016
,,,0.000794,0.016
,,,0.000795,0.016
,,,0.000796,0.014
,,,0.000797,0.014
,,,0.000798,0.012
,,,0.000799,0.01
,,,0.0008,0.008
,,,0.000801,0.004
,,,0.000802,0.002
,,,0.000803,0.002
,,,0.000804,0.002
,,,0.000805,-0.002
,,,0.000806,0
,,,0.000807,-0.004
,,,0.000808,-0.004
,,,0.000809,-0.01
,,,0.00081,-0.008
,,,0.000811,-0.01
,,,0.000812,-0.01
,,,0.000813,-0.008
,,,0.000814,-0.01
,,,0.000815,-0.01
,,,0.000816,-0.008
,,,0.000817,-0.008
,,,0.000818,-0.006
,,,0.000819,-0.006
,,,0.00082,-0.006
,,,0.000821,-0.01
,,,0.000822,-0.008
,,,0.000823,-0.008
,,,0.000824,-0.008
,,,0.000825,-0.008
,,,0.000826,-0.006
,,,0.000827,-0.008
,,,0.000828,-0.006
,,,0.000829,-0.002
,,,0.00083,0
,,,0.000831,-0.002
,,,0.000832,0
,,,0.000833,-0.004
,,,0.000834,-0.002
,,,0.000835,-0.004
,,,0.000836,-0.008
,,,0.000837,-0.004
,,,0.000838,-0.008
,,,0.000839,-0.01
,,,0.00084,-0.008
,,,0.000841,-0.008
,,,0.000842,-0.008
,,,0.000843,-0.006
,,,0.000844,-0.008
,,,0.000845,-0.008
,,,0.000846,-0.008
,,,0.000847,-0.01
,,,0.000848,-0.01
,,,0.000849,-0.008
,,,0.00085,-0.006
,,,0.000851,-0.01
,,,0.000852,-0.008
,,,0.000853,-0.01
,,,0.000854,-0.01
,,,0.000855,-0.008
,,,0.000856,-0.008
,,,0.000857,-0.006
,,,0.000858,-0.008
,,,0.000859,-0.006
,,,0.00086,-0.006
,,,0.000861,-0.008
,,,0.000862,-0.008
,,,0.000863,-0.008
,,,0.000864,-0.01
,,,0.000865,-0.008
,,,0.000866,-0.008
,,,0.000867,-0.008
,,,0.000868,-0.01
,,,0.000869,-0.008
,,,0.00087,-0.006
,,,0.000871,-0.008
,,,0.000872,-0.006
,,,0.000873,-0.006
,,,0.000874,-0.008
,,,0.000875,-0.01
,,,0.000876,-0.008
,,,0.000877,-0.008
,,,0.000878,-0.008
,,,0.000879,-0.01
,,,0.00088,-0.006
,,,0.000881,-0.006
,,,0.000882,-0.008
,,,0.000883,-0.006
,,,0.000884,-0.008
,,,0.000885,-0.01
,,,0.000886,-0.008
,,,0.000887,-0.01
,,,0.000888,-0.008
,,,0.000889,-0.006
,,,0.00089,-0.008
,,,0.000891,-0.008
,,,0.000892,-0.008
,,,0.000893,-0.008
,,,0.000894,-0.008
,,,0.000895,-0.008
,,,0.000896,-0.006
,,,0.000897,-0.008
,,,0.000898,-0.008
,,,0.000899,-0.008
,,,0.0009,-0.006
,,,0.000901,-0.008
,,,0.000902,-0.008
,,,0.000903,-0.01
,,,0.000904,-0.008
,,,0.000905,-0.008
,,,0.000906,-0.006
,,,0.000907,-0.006
,,,0.000908,-0.006
,,,0.000909,-0.006
,,,0.00091,-0.008
,,,0.000911,-0.01
,,,0.000912,-0.01
,,,0.000913,-0.01
,,,0.000914,-0.008
,,,0.000915,-0.008
,,,0.000916,-0.006
,,,0.000917,-0.01
,,,0.000918,-0.006
,,,0.000919,-0.008
,,,0.00092,-0.008
,,,0.000921,-0.006
,,,0.000922,-0.01
,,,0.000923,-0.008
,,,0.000924,-0.01
,,,0.000925,-0.008
,,,0.000926,-0.008
,,,0.000927,-0.008
,,,0.000928,-0.004
,,,0.000929,-0.006
,,,0.00093,-0.004
,,,0.000931,0.002
,,,0.000932,0.002
,,,0.000933,0
,,,0.000934,0
,,,0.000935,0.004
,,,0.000936,0.006
,,,0.000937,0
,,,0.000938,0.006
,,,0.000939,0.006
,,,0.00094,0.006
,,,0.000941,0.01
,,,0.000942,0.01
,,,0.000943,0.012
,,,0.000944,0.01
,,,0.000945,0.012
,,,0.000946,0.01
,,,0.000947,0.012
,,,0.000948,0.01
,,,0.000949,0.012
,,,0.00095,0.01
,,,0.000951,0.012
,,,0.000952,0.012
,,,0.000953,0.01
,,,0.000954,0.01
,,,0.000955,0.006
,,,0.000956,0.008
,,,0.000957,0.004
,,,0.000958,0.002
,,,0.000959,0.002
,,,0.00096,-0.004
,,,0.000961,-0.004
,,,0.000962,-0.008
,,,0.000963,-0.008
,,,0.000964,-0.01
,,,0.000965,-0.006
,,,0.000966,-0.006
,,,0.000967,-0.006
,,,0.000968,-0.006
,,,0.000969,-0.004
,,,0.00097,-0.008
,,,0.000971,-0.008
,,,0.000972,-0.008
,,,0.000973,-0.008
,,,0.000974,-0.008
,,,0.000975,-0.008
,,,0.000976,-0.008
,,,0.000977,-0.008
,,,0.000978,-0.008
,,,0.000979,-0.006
,,,0.00098,-0.008
,,,0.000981,-0.006
,,,0.000982,-0.008
,,,0.000983,-0.008
,,,0.000984,-0.01
,,,0.000985,-0.01
,,,0.000986,-0.01
,,,0.000987,-0.01
,,,0.000988,-0.008
,,,0.000989,-0.01
,,,0.00099,-0.012
,,,0.000991,-0.014
,,,0.000992,-0.022
,,,0.000993,-0.026
,,,0.000994,-0.032
,,,0.000995,-0.012
,,,0.000996,0.008
,,,0.000997,0.028
,,,0.000998,0.05
,,,0.000999,0.072
,,,0.001,0.09
,,,0.001001,0.114
,,,0.001002,0.136
,,,0.001003,0.144
,,,0.001004,0.126
,,,0.001005,0.108
,,,0.001006,0.084
,,,0.001007,0.06
,,,0.001008,0.042
,,,0.001009,0.018
,,,0.00101,0
,,,0.001011,-0.022
,,,0.001012,-0.044
,,,0.001013,-0.048
,,,0.001014,-0.034
,,,0.001015,-0.028
,,,0.001016,-0.022
,,,0.001017,-0.012
,,,0.001018,-0.006
,,,0.001019,-0.006
,,,0.00102,-0.006
,,,0.001021,-0.008
,,,0.001022,-0.008
,,,0.001023,-0.01
,,,0.001024,-0.008
,,,0.001025,-0.006
,,,0.001026,-0.008
,,,0.001027,-0.006
,,,0.001028,-0.006
,,,0.001029,-0.008
,,,0.00103,-0.008
,,,0.001031,-0.006
,,,0.001032,-0.008
,,,0.001033,-0.01
,,,0.001034,-0.008
,,,0.001035,-0.008
,,,0.001036,-0.012
,,,0.001037,-0.006
,,,0.001038,-0.006
,,,0.001039,-0.008
,,,0.00104,-0.008
,,,0.001041,-0.006
,,,0.001042,-0.008
,,,0.001043,-0.008
,,,0.001044,-0.006
,,,0.001045,-0.008
,,,0.001046,-0.01
,,,0.001047,-0.01
,,,0.001048,-0.008
,,,0.001049,-0.008
,,,0.00105,-0.01
,,,0.001051,-0.006
,,,0.001052,-0.01
,,,0.001053,-0.008
,,,0.001054,-0.01
,,,0.001055,-0.008
,,,0.001056,-0.01
,,,0.001057,-0.006
,,,0.001058,-0.008
,,,0.001059,-0.008
,,,0.00106,-0.006
,,,0.001061,-0.006
,,,0.001062,-0.008
,,,0.001063,-0.006
,,,0.001064,-0.008
,,,0.001065,-0.006
,,,0.001066,-0.006
,,,0.001067,-0.006
,,,0.001068,-0.004
,,,0.001069,-0.006
,,,0.00107,-0.004
,,,0.001071,-0.002
,,,0.001072,-0.006
,,,0.001073,0
,,,0.001074,-0.002
,,,0.001075,-0.002
,,,0.001076,0.002
,,,0.001077,0.004
,,,0.001078,0.002
,,,0.001079,0.004
,,,0.00108,0.004
,,,0.001081,0.004
,,,0.001082,0.004
,,,0.001083,0.008
,,,0.001084,0.006
,,,0.001085,0.008
,,,0.001086,0.008
,,,0.001087,0.012
,,,0.001088,0.01
,,,0.001089,0.01
,,,0.00109,0.01
,,,0.001091,0.014
,,,0.001092,0.014
,,,0.001093,0.012
,,,0.001094,0.016
,,,0.001095,0.014
,,,0.001096,0.012
,,,0.001097,0.014
,,,0.001098,0.014
,,,0.001099,0.016
,,,0.0011,0.016
,,,0.001101,0.02
,,,0.001102,0.02
,,,0.001103,0.02
,,,0.001104,0.02
,,,0.001105,0.018
,,,0.001106,0.02
,,,0.001107,0.022
,,,0.001108,0.018
,,,0.001109,0.02
,,,0.00111,0.02
,,,0.001111,0.02
,,,0.001112,0.018
,,,0.001113,0.022
,,,0.001114,0.024
,,,0.001115,0.022
,,,0.001116,0.02
,,,0.001117,0.022
,,,0.001118,0.02
,,,0.001119,0.02
,,,0.00112,0.02
,,,0.001121,0.02
,,,0.001122,0.02
,,,0.001123,0.02
,,,0.001124,0.02
,,,0.001125,0.018
,,,0.001126,0.016
,,,0.001127,0.016
,,,0.001128,0.014
,,,0.001129,0.014
,,,0.00113,0.014
,,,0.001131,0.01
,,,0.001132,0.008
,,,0.001133,0.008
,,,0.001134,0.008
,,,0.001135,0.004
,,,0.001136,0.006
,,,0.001137,0.002
,,,0.001138,0
,,,0.001139,0
,,,0.00114,-0.002
,,,0.001141,-0.006
,,,0.001142,-0.006
,,,0.001143,-0.008
,,,0.001144,-0.01
,,,0.001145,-0.01
,,,0.001146,-0.008
,,,0.001147,-0.006
,,,0.001148,-0.008
,,,0.001149,-0.004
,,,0.00115,-0.006
,,,0.001151,-0.008
,,,0.001152,-0.008
,,,0.001153,-0.008
,,,0.001154,-0.008
,,,0.001155,-0.01
,,,0.001156,-0.008
,,,0.001157,-0.008
,,,0.001158,-0.01
,,,0.001159,-0.008
,,,0.00116,-0.006
,,,0.001161,-0.004
,,,0.001162,-0.002
,,,0.001163,-0.002
,,,0.001164,-0.004
,,,0.001165,0
,,,0.001166,-0.002
,,,0.001167,0
,,,0.001168,-0.004
,,,0.001169,-0.004
,,,0.00117,-0.006
,,,0.001171,-0.008
,,,0.001172,-0.006
,,,0.001173,-0.006
,,,0.001174,-0.008
,,,0.001175,-0.006
,,,0.001176,-0.008
,,,0.001177,-0.008
,,,0.001178,-0.008
,,,0.001179,-0.006
,,,0.00118,-0.008
,,,0.001181,-0.01
,,,0.001182,-0.008
,,,0.001183,-0.008
,,,0.001184,-0.01
,,,0.001185,-0.006
,,,0.001186,-0.01
,,,0.001187,-0.008
,,,0.001188,-0.006
,,,0.001189,-0.01
,,,0.00119,-0.01
,,,0.001191,-0.01
,,,0.001192,-0.006
,,,0.001193,-0.008
,,,0.001194,-0.008
,,,0.001195,-0.01
,,,0.001196,-0.006
,,,0.001197,-0.006
,,,0.001198,-0.006
,,,0.001199,-0.006
,,,0.0012,-0.006
,,,0.001201,-0.006
,,,0.001202,-0.006
,,,0.001203,-0.006
,,,0.001204,-0.008
,,,0.001205,-0.008
,,,0.001206,-0.01
,,,0.001207,-0.012
,,,0.001208,-0.008
,,,0.001209,-0.008
,,,0.00121,-0.01
,,,0.001211,-0.006
,,,0.001212,-0.004
,,,0.001213,-0.006
,,,0.001214,-0.008
,,,0.001215,-0.008
,,,0.001216,-0.008
,,,0.001217,-0.01
,,,0.001218,-0.008
,,,0.001219,-0.006
,,,0.00122,-0.008
,,,0.001221,-0.01
,,,0.001222,-0.006
,,,0.001223,-0.008
,,,0.001224,-0.01
,,,0.001225,-0.006
,,,0.001226,-0.008
,,,0.001227,-0.01
,,,0.001228,-0.01
,,,0.001229,-0.008
,,,0.00123,-0.01
,,,0.001231,-0.008
,,,0.001232,-0.008
,,,0.001233,-0.01
,,,0.001234,-0.008
,,,0.001235,-0.006
,,,0.001236,-0.008
,,,0.001237,-0.01
,,,0.001238,-0.006
,,,0.001239,-0.006
,,,0.00124,-0.01
,,,0.001241,-0.008
,,,0.001242,-0.006
,,,0.001243,-0.006
,,,0.001244,-0.01
,,,0.001245,-0.006
,,,0.001246,-0.008
,,,0.001247,-0.008
,,,0.001248,-0.006
,,,0.001249,-0.006