Record Length,2.500000e+03,,   0.000000000000,  -0.02560,
Sample Interval,4.000000e-03,,   0.004000000000,  -0.02560,
Trigger Point,0.000000000000e+00,,   0.008000000000,  -0.02560,
,,,   0.012000000000,  -0.02560,
,,,   0.016000000000,  -0.02560,
,,,   0.020000000000,  -0.02560,
Source,CH1,,   0.024000000000,  -0.02560,
Vertical Units,V,,   0.028000000000,  -0.02560,
Vertical Scale,5.000000e-03,,   0.032000000000,  -0.02560,
Vertical Offset,0.000000e+00,,   0.036000000000,  -0.02560,
Horizontal Units,s,,   0.040000000000,  -0.02560,
Horizontal Scale,1.000000e+00,,   0.044000000000,  -0.02560,
Pt Fmt,Y,,   0.048000000000,  -0.02560,
Yzero,0.000000e+00,,   0.052000000000,  -0.02560,
Probe Atten,1.000000e+00,,   0.056000000000,  -0.02560,
Model Number,TDS2014B,,   0.060000000000,  -0.02560,
Serial Number,C102838,,   0.064000000000,  -0.02560,
Firmware Version,FV:v22.11,,   0.068000000000,  -0.02560,
,,,0.072000000000,  -0.02560,
,,,0.076000000000,  -0.02560,
,,,0.080000000000,  -0.02560,
,,,0.084000000000,  -0.02560,
,,,0.088000000000,  -0.02560,
,,,0.092000000000,  -0.02560,
,,,0.096000000000,  -0.02560,
,,,0.100000000000,  -0.02560,
,,,0.104000000000,  -0.02560,
,,,0.108000000000,  -0.02560,
,,,0.112000000000,  -0.02560,
,,,0.116000000000,  -0.02560,
,,,0.120000000000,  -0.02560,
,,,0.124000000000,  -0.02560,
,,,0.128000000000,  -0.02560,
,,,0.132000000000,  -0.02560,
,,,0.136000000000,  -0.02560,
,,,0.140000000000,  -0.02560,
,,,0.144000000000,  -0.02560,
,,,0.148000000000,  -0.02560,
,,,0.152000000000,  -0.02560,
,,,0.156000000000,  -0.02560,
,,,0.160000000000,  -0.02560,
,,,0.164000000000,  -0.02560,
,,,0.168000000000,  -0.02560,
,,,0.172000000000,  -0.02560,
,,,0.176000000000,   0.00000,
,,,0.180000000000,   0.00000,
,,,0.184000000000,   0.00020,
,,,0.188000000000,   0.00020,
,,,0.192000000000,   0.00040,
,,,0.196000000000,  -0.00020,
,,,0.200000000000,  -0.00060,
,,,0.204000000000,   0.00000,
,,,0.208000000000,   0.00000,
,,,0.212000000000,   0.00020,
,,,0.216000000000,   0.00020,
,,,0.220000000000,   0.00040,
,,,0.224000000000,   0.00080,
,,,0.228000000000,   0.00000,
,,,0.232000000000,   0.00080,
,,,0.236000000000,   0.00020,
,,,0.240000000000,   0.00100,
,,,0.244000000000,  -0.00060,
,,,0.248000000000,   0.00020,
,,,0.252000000000,  -0.00120,
,,,0.256000000000,   0.00000,
,,,0.260000000000,   0.00100,
,,,0.264000000000,  -0.00040,
,,,0.268000000000,   0.00080,
,,,0.272000000000,   0.00120,
,,,0.276000000000,   0.00040,
,,,0.280000000000,   0.00020,
,,,0.284000000000,  -0.00060,
,,,0.288000000000,   0.00120,
,,,0.292000000000,   0.00000,
,,,0.296000000000,   0.00020,
,,,0.300000000000,   0.00060,
,,,0.304000000000,   0.00080,
,,,0.308000000000,  -0.00040,
,,,0.312000000000,   0.00000,
,,,0.316000000000,  -0.00020,
,,,0.320000000000,   0.00000,
,,,0.324000000000,   0.00000,
,,,0.328000000000,  -0.00060,
,,,0.332000000000,   0.00060,
,,,0.336000000000,   0.00040,
,,,0.340000000000,   0.00000,
,,,0.344000000000,  -0.00020,
,,,0.348000000000,  -0.00080,
,,,0.352000000000,   0.00020,
,,,0.356000000000,   0.00000,
,,,0.360000000000,  -0.00040,
,,,0.364000000000,   0.00040,
,,,0.368000000000,   0.00000,
,,,0.372000000000,  -0.00020,
,,,0.376000000000,  -0.00020,
,,,0.380000000000,  -0.00020,
,,,0.384000000000,   0.00060,
,,,0.388000000000,  -0.00020,
,,,0.392000000000,   0.00160,
,,,0.396000000000,  -0.00060,
,,,0.400000000000,   0.00020,
,,,0.404000000000,   0.00040,
,,,0.408000000000,   0.00020,
,,,0.412000000000,  -0.00120,
,,,0.416000000000,   0.00000,
,,,0.420000000000,   0.00040,
,,,0.424000000000,  -0.00020,
,,,0.428000000000,   0.00020,
,,,0.432000000000,  -0.00120,
,,,0.436000000000,   0.00080,
,,,0.440000000000,  -0.00040,
,,,0.444000000000,   0.00040,
,,,0.448000000000,  -0.00060,
,,,0.452000000000,   0.00020,
,,,0.456000000000,  -0.00020,
,,,0.460000000000,   0.00080,
,,,0.464000000000,  -0.00040,
,,,0.468000000000,   0.00000,
,,,0.472000000000,  -0.00140,
,,,0.476000000000,   0.00000,
,,,0.480000000000,  -0.00060,
,,,0.484000000000,   0.00000,
,,,0.488000000000,  -0.00020,
,,,0.492000000000,  -0.00180,
,,,0.496000000000,  -0.00080,
,,,0.500000000000,  -0.00120,
,,,0.504000000000,   0.00020,
,,,0.508000000000,  -0.00040,
,,,0.512000000000,   0.00120,
,,,0.516000000000,  -0.00020,
,,,0.520000000000,   0.00040,
,,,0.524000000000,  -0.00020,
,,,0.528000000000,  -0.00040,
,,,0.532000000000,   0.00020,
,,,0.536000000000,   0.00100,
,,,0.540000000000,  -0.00020,
,,,0.544000000000,  -0.00020,
,,,0.548000000000,   0.00000,
,,,0.552000000000,  -0.00040,
,,,0.556000000000,  -0.00100,
,,,0.560000000000,   0.00060,
,,,0.564000000000,  -0.00080,
,,,0.568000000000,  -0.00020,
,,,0.572000000000,   0.00060,
,,,0.576000000000,  -0.00100,
,,,0.580000000000,   0.00000,
,,,0.584000000000,  -0.00160,
,,,0.588000000000,   0.00040,
,,,0.592000000000,  -0.00040,
,,,0.596000000000,   0.00120,
,,,0.600000000000,  -0.00060,
,,,0.604000000000,   0.00180,
,,,0.608000000000,   0.00100,
,,,0.612000000000,   0.00040,
,,,0.616000000000,   0.00000,
,,,0.620000000000,   0.00080,
,,,0.624000000000,   0.00100,
,,,0.628000000000,  -0.00080,
,,,0.632000000000,  -0.00020,
,,,0.636000000000,  -0.00120,
,,,0.640000000000,   0.00060,
,,,0.644000000000,  -0.00120,
,,,0.648000000000,   0.00080,
,,,0.652000000000,   0.00080,
,,,0.656000000000,   0.00020,
,,,0.660000000000,  -0.00160,
,,,0.664000000000,  -0.00040,
,,,0.668000000000,   0.00160,
,,,0.672000000000,   0.00000,
,,,0.676000000000,  -0.00140,
,,,0.680000000000,   0.00080,
,,,0.684000000000,  -0.00260,
,,,0.688000000000,   0.00180,
,,,0.692000000000,  -0.00040,
,,,0.696000000000,   0.00120,
,,,0.700000000000,  -0.00040,
,,,0.704000000000,   0.00060,
,,,0.708000000000,   0.00100,
,,,0.712000000000,   0.00040,
,,,0.716000000000,   0.00160,
,,,0.720000000000,   0.00000,
,,,0.724000000000,   0.00040,
,,,0.728000000000,  -0.00100,
,,,0.732000000000,  -0.00020,
,,,0.736000000000,   0.00000,
,,,0.740000000000,   0.00020,
,,,0.744000000000,   0.00020,
,,,0.748000000000,  -0.00040,
,,,0.752000000000,   0.00000,
,,,0.756000000000,   0.00080,
,,,0.760000000000,  -0.00020,
,,,0.764000000000,  -0.00060,
,,,0.768000000000,  -0.00020,
,,,0.772000000000,  -0.00040,
,,,0.776000000000,   0.00000,
,,,0.780000000000,   0.00000,
,,,0.784000000000,  -0.00040,
,,,0.788000000000,  -0.00060,
,,,0.792000000000,   0.00000,
,,,0.796000000000,   0.00060,
,,,0.800000000000,   0.00000,
,,,0.804000000000,  -0.00080,
,,,0.808000000000,   0.00020,
,,,0.812000000000,   0.00060,
,,,0.816000000000,   0.00040,
,,,0.820000000000,  -0.00040,
,,,0.824000000000,  -0.00020,
,,,0.828000000000,  -0.00080,
,,,0.832000000000,  -0.00040,
,,,0.836000000000,  -0.00020,
,,,0.840000000000,   0.00060,
,,,0.844000000000,   0.00020,
,,,0.848000000000,   0.00000,
,,,0.852000000000,  -0.00060,
,,,0.856000000000,  -0.00020,
,,,0.860000000000,   0.00020,
,,,0.864000000000,   0.00060,
,,,0.868000000000,   0.00020,
,,,0.872000000000,   0.00020,
,,,0.876000000000,  -0.00020,
,,,0.880000000000,   0.00000,
,,,0.884000000000,   0.00040,
,,,0.888000000000,   0.00040,
,,,0.892000000000,  -0.00020,
,,,0.896000000000,  -0.00080,
,,,0.900000000000,   0.00060,
,,,0.904000000000,   0.00040,
,,,0.908000000000,   0.00000,
,,,0.912000000000,   0.00000,
,,,0.916000000000,  -0.00080,
,,,0.920000000000,  -0.00020,
,,,0.924000000000,   0.00000,
,,,0.928000000000,  -0.00100,
,,,0.932000000000,  -0.00060,
,,,0.936000000000,  -0.00040,
,,,0.940000000000,   0.00000,
,,,0.944000000000,   0.00020,
,,,0.948000000000,  -0.00020,
,,,0.952000000000,  -0.00020,
,,,0.956000000000,   0.00040,
,,,0.960000000000,   0.00000,
,,,0.964000000000,  -0.00020,
,,,0.968000000000,   0.00040,
,,,0.972000000000,  -0.00020,
,,,0.976000000000,   0.00040,
,,,0.980000000000,  -0.00020,
,,,0.984000000000,  -0.00020,
,,,0.988000000000,   0.00020,
,,,0.992000000000,   0.00020,
,,,0.996000000000,   0.00020,
,,,1.000000000000,  -0.00020,
,,,1.004000000000,   0.00040,
,,,1.008000000000,   0.00000,
,,,1.012000000000,  -0.00060,
,,,1.016000000000,  -0.00020,
,,,1.020000000000,   0.00040,
,,,1.024000000000,   0.00040,
,,,1.028000000000,   0.00020,
,,,1.032000000000,   0.00000,
,,,1.036000000000,   0.00000,
,,,1.040000000000,   0.00000,
,,,1.044000000000,  -0.00020,
,,,1.048000000000,  -0.00040,
,,,1.052000000000,   0.00020,
,,,1.056000000000,  -0.00060,
,,,1.060000000000,  -0.00040,
,,,1.064000000000,   0.00040,
,,,1.068000000000,   0.00040,
,,,1.072000000000,   0.00020,
,,,1.076000000000,   0.00000,
,,,1.080000000000,   0.00020,
,,,1.084000000000,  -0.00040,
,,,1.088000000000,  -0.00020,
,,,1.092000000000,   0.00040,
,,,1.096000000000,   0.00060,
,,,1.100000000000,  -0.00020,
,,,1.104000000000,   0.00080,
,,,1.108000000000,  -0.00040,
,,,1.112000000000,   0.00080,
,,,1.116000000000,  -0.00120,
,,,1.120000000000,  -0.00020,
,,,1.124000000000,   0.00060,
,,,1.128000000000,  -0.00020,
,,,1.132000000000,   0.00000,
,,,1.136000000000,  -0.00040,
,,,1.140000000000,   0.00020,
,,,1.144000000000,  -0.00120,
,,,1.148000000000,  -0.00060,
,,,1.152000000000,  -0.00020,
,,,1.156000000000,   0.00020,
,,,1.160000000000,  -0.00020,
,,,1.164000000000,  -0.00020,
,,,1.168000000000,   0.00100,
,,,1.172000000000,  -0.00020,
,,,1.176000000000,   0.00000,
,,,1.180000000000,   0.00040,
,,,1.184000000000,  -0.00040,
,,,1.188000000000,   0.00100,
,,,1.192000000000,  -0.00040,
,,,1.196000000000,   0.00080,
,,,1.200000000000,   0.00060,
,,,1.204000000000,  -0.00020,
,,,1.208000000000,  -0.00120,
,,,1.212000000000,   0.00000,
,,,1.216000000000,   0.00080,
,,,1.220000000000,  -0.00040,
,,,1.224000000000,   0.00140,
,,,1.228000000000,   0.00080,
,,,1.232000000000,   0.00020,
,,,1.236000000000,   0.00040,
,,,1.240000000000,   0.00040,
,,,1.244000000000,  -0.00020,
,,,1.248000000000,   0.00120,
,,,1.252000000000,   0.00020,
,,,1.256000000000,   0.00300,
,,,1.260000000000,  -0.00040,
,,,1.264000000000,  -0.00260,
,,,1.268000000000,  -0.00240,
,,,1.272000000000,   0.00000,
,,,1.276000000000,  -0.00200,
,,,1.280000000000,  -0.00060,
,,,1.284000000000,   0.00080,
,,,1.288000000000,   0.00180,
,,,1.292000000000,   0.00060,
,,,1.296000000000,   0.00020,
,,,1.300000000000,   0.00200,
,,,1.304000000000,  -0.00100,
,,,1.308000000000,   0.00020,
,,,1.312000000000,  -0.00080,
,,,1.316000000000,  -0.00060,
,,,1.320000000000,  -0.00040,
,,,1.324000000000,   0.00060,
,,,1.328000000000,   0.00020,
,,,1.332000000000,   0.00060,
,,,1.336000000000,  -0.00020,
,,,1.340000000000,  -0.00060,
,,,1.344000000000,  -0.00020,
,,,1.348000000000,  -0.00020,
,,,1.352000000000,   0.00080,
,,,1.356000000000,  -0.00040,
,,,1.360000000000,  -0.00020,
,,,1.364000000000,  -0.00020,
,,,1.368000000000,   0.00040,
,,,1.372000000000,   0.00000,
,,,1.376000000000,  -0.00120,
,,,1.380000000000,  -0.00020,
,,,1.384000000000,   0.00000,
,,,1.388000000000,  -0.00040,
,,,1.392000000000,  -0.00100,
,,,1.396000000000,  -0.00080,
,,,1.400000000000,  -0.00040,
,,,1.404000000000,   0.00000,
,,,1.408000000000,  -0.00060,
,,,1.412000000000,   0.00120,
,,,1.416000000000,  -0.00020,
,,,1.420000000000,   0.00000,
,,,1.424000000000,  -0.00020,
,,,1.428000000000,   0.00020,
,,,1.432000000000,  -0.00180,
,,,1.436000000000,   0.00020,
,,,1.440000000000,  -0.00020,
,,,1.444000000000,  -0.00060,
,,,1.448000000000,   0.00020,
,,,1.452000000000,   0.00120,
,,,1.456000000000,  -0.00020,
,,,1.460000000000,   0.00000,
,,,1.464000000000,   0.00000,
,,,1.468000000000,  -0.00060,
,,,1.472000000000,   0.00160,
,,,1.476000000000,   0.00020,
,,,1.480000000000,  -0.00020,
,,,1.484000000000,   0.00040,
,,,1.488000000000,   0.00040,
,,,1.492000000000,  -0.00120,
,,,1.496000000000,  -0.00100,
,,,1.500000000000,  -0.00060,
,,,1.504000000000,  -0.00020,
,,,1.508000000000,   0.00100,
,,,1.512000000000,  -0.00220,
,,,1.516000000000,   0.00040,
,,,1.520000000000,  -0.00020,
,,,1.524000000000,   0.00040,
,,,1.528000000000,   0.00080,
,,,1.532000000000,  -0.00120,
,,,1.536000000000,   0.00080,
,,,1.540000000000,  -0.00040,
,,,1.544000000000,  -0.00100,
,,,1.548000000000,  -0.00020,
,,,1.552000000000,  -0.00260,
,,,1.556000000000,   0.00020,
,,,1.560000000000,   0.00000,
,,,1.564000000000,   0.00000,
,,,1.568000000000,   0.00020,
,,,1.572000000000,  -0.00020,
,,,1.576000000000,  -0.00100,
,,,1.580000000000,  -0.00080,
,,,1.584000000000,  -0.00040,
,,,1.588000000000,  -0.00020,
,,,1.592000000000,   0.00060,
,,,1.596000000000,   0.00000,
,,,1.600000000000,   0.00000,
,,,1.604000000000,  -0.00020,
,,,1.608000000000,   0.00000,
,,,1.612000000000,  -0.00020,
,,,1.616000000000,  -0.00040,
,,,1.620000000000,   0.00040,
,,,1.624000000000,  -0.00020,
,,,1.628000000000,  -0.00020,
,,,1.632000000000,  -0.00020,
,,,1.636000000000,   0.00000,
,,,1.640000000000,  -0.00020,
,,,1.644000000000,   0.00020,
,,,1.648000000000,  -0.00080,
,,,1.652000000000,  -0.00040,
,,,1.656000000000,   0.00020,
,,,1.660000000000,   0.00080,
,,,1.664000000000,   0.00020,
,,,1.668000000000,   0.00040,
,,,1.672000000000,   0.00040,
,,,1.676000000000,  -0.00080,
,,,1.680000000000,   0.00020,
,,,1.684000000000,   0.00000,
,,,1.688000000000,   0.00020,
,,,1.692000000000,   0.00040,
,,,1.696000000000,   0.00020,
,,,1.700000000000,  -0.00020,
,,,1.704000000000,  -0.00020,
,,,1.708000000000,  -0.00040,
,,,1.712000000000,  -0.00020,
,,,1.716000000000,  -0.00020,
,,,1.720000000000,  -0.00060,
,,,1.724000000000,  -0.00040,
,,,1.728000000000,  -0.00080,
,,,1.732000000000,  -0.00080,
,,,1.736000000000,   0.00000,
,,,1.740000000000,   0.00060,
,,,1.744000000000,  -0.00020,
,,,1.748000000000,  -0.00040,
,,,1.752000000000,  -0.00060,
,,,1.756000000000,   0.00060,
,,,1.760000000000,  -0.00020,
,,,1.764000000000,  -0.00040,
,,,1.768000000000,  -0.00040,
,,,1.772000000000,   0.00060,
,,,1.776000000000,   0.00000,
,,,1.780000000000,   0.00080,
,,,1.784000000000,   0.00080,
,,,1.788000000000,   0.00060,
,,,1.792000000000,   0.00020,
,,,1.796000000000,  -0.00020,
,,,1.800000000000,  -0.00060,
,,,1.804000000000,  -0.00020,
,,,1.808000000000,   0.00040,
,,,1.812000000000,   0.00000,
,,,1.816000000000,  -0.00040,
,,,1.820000000000,   0.00020,
,,,1.824000000000,   0.00120,
,,,1.828000000000,   0.00000,
,,,1.832000000000,  -0.00040,
,,,1.836000000000,  -0.00060,
,,,1.840000000000,   0.00160,
,,,1.844000000000,   0.00060,
,,,1.848000000000,  -0.00120,
,,,1.852000000000,   0.00020,
,,,1.856000000000,  -0.00020,
,,,1.860000000000,  -0.00040,
,,,1.864000000000,  -0.00040,
,,,1.868000000000,   0.00020,
,,,1.872000000000,   0.00000,
,,,1.876000000000,   0.00020,
,,,1.880000000000,  -0.00120,
,,,1.884000000000,   0.00040,
,,,1.888000000000,  -0.00040,
,,,1.892000000000,   0.00000,
,,,1.896000000000,   0.00000,
,,,1.900000000000,   0.00220,
,,,1.904000000000,  -0.00040,
,,,1.908000000000,   0.00000,
,,,1.912000000000,  -0.00060,
,,,1.916000000000,   0.00040,
,,,1.920000000000,  -0.00220,
,,,1.924000000000,  -0.00080,
,,,1.928000000000,  -0.00020,
,,,1.932000000000,  -0.00080,
,,,1.936000000000,  -0.00060,
,,,1.940000000000,   0.00160,
,,,1.944000000000,   0.00140,
,,,1.948000000000,  -0.00020,
,,,1.952000000000,  -0.00080,
,,,1.956000000000,   0.00060,
,,,1.960000000000,   0.00020,
,,,1.964000000000,   0.00000,
,,,1.968000000000,  -0.00020,
,,,1.972000000000,   0.00020,
,,,1.976000000000,   0.00060,
,,,1.980000000000,  -0.00020,
,,,1.984000000000,  -0.00040,
,,,1.988000000000,   0.00000,
,,,1.992000000000,   0.00040,
,,,1.996000000000,  -0.00040,
,,,2.000000000000,  -0.00060,
,,,2.004000000000,   0.00160,
,,,2.008000000000,   0.00040,
,,,2.012000000000,  -0.00040,
,,,2.016000000000,  -0.00040,
,,,2.020000000000,   0.00000,
,,,2.024000000000,  -0.00080,
,,,2.028000000000,  -0.00020,
,,,2.032000000000,   0.00020,
,,,2.036000000000,  -0.00060,
,,,2.040000000000,   0.00000,
,,,2.044000000000,  -0.00120,
,,,2.048000000000,   0.00040,
,,,2.052000000000,  -0.00060,
,,,2.056000000000,  -0.00040,
,,,2.060000000000,  -0.00020,
,,,2.064000000000,   0.00240,
,,,2.068000000000,  -0.00020,
,,,2.072000000000,   0.00000,
,,,2.076000000000,   0.00040,
,,,2.080000000000,  -0.00080,
,,,2.084000000000,  -0.00060,
,,,2.088000000000,   0.00000,
,,,2.092000000000,   0.00040,
,,,2.096000000000,   0.00020,
,,,2.100000000000,  -0.00040,
,,,2.104000000000,   0.00000,
,,,2.108000000000,  -0.00020,
,,,2.112000000000,   0.00060,
,,,2.116000000000,  -0.00020,
,,,2.120000000000,  -0.00080,
,,,2.124000000000,  -0.00020,
,,,2.128000000000,   0.00040,
,,,2.132000000000,  -0.00060,
,,,2.136000000000,   0.00020,
,,,2.140000000000,  -0.00040,
,,,2.144000000000,  -0.00080,
,,,2.148000000000,   0.00000,
,,,2.152000000000,  -0.00080,
,,,2.156000000000,   0.00040,
,,,2.160000000000,  -0.00020,
,,,2.164000000000,   0.00020,
,,,2.168000000000,   0.00040,
,,,2.172000000000,   0.00000,
,,,2.176000000000,  -0.00020,
,,,2.180000000000,  -0.00020,
,,,2.184000000000,  -0.00020,
,,,2.188000000000,   0.00040,
,,,2.192000000000,   0.00040,
,,,2.196000000000,   0.00020,
,,,2.200000000000,  -0.00080,
,,,2.204000000000,   0.00000,
,,,2.208000000000,   0.00020,
,,,2.212000000000,   0.00000,
,,,2.216000000000,   0.00000,
,,,2.220000000000,  -0.00020,
,,,2.224000000000,  -0.00060,
,,,2.228000000000,   0.00020,
,,,2.232000000000,  -0.00080,
,,,2.236000000000,   0.00000,
,,,2.240000000000,   0.00000,
,,,2.244000000000,   0.00020,
,,,2.248000000000,  -0.00080,
,,,2.252000000000,  -0.00060,
,,,2.256000000000,   0.00080,
,,,2.260000000000,   0.00060,
,,,2.264000000000,  -0.00040,
,,,2.268000000000,  -0.00020,
,,,2.272000000000,   0.00020,
,,,2.276000000000,   0.00000,
,,,2.280000000000,  -0.00020,
,,,2.284000000000,   0.00040,
,,,2.288000000000,  -0.00040,
,,,2.292000000000,  -0.00040,
,,,2.296000000000,  -0.00020,
,,,2.300000000000,  -0.00080,
,,,2.304000000000,   0.00000,
,,,2.308000000000,   0.00000,
,,,2.312000000000,  -0.00040,
,,,2.316000000000,   0.00020,
,,,2.320000000000,  -0.00080,
,,,2.324000000000,   0.00000,
,,,2.328000000000,   0.00040,
,,,2.332000000000,   0.00020,
,,,2.336000000000,  -0.00060,
,,,2.340000000000,   0.00000,
,,,2.344000000000,   0.00000,
,,,2.348000000000,  -0.00020,
,,,2.352000000000,  -0.00020,
,,,2.356000000000,   0.00000,
,,,2.360000000000,   0.00040,
,,,2.364000000000,  -0.00040,
,,,2.368000000000,   0.00060,
,,,2.372000000000,   0.00020,
,,,2.376000000000,   0.00020,
,,,2.380000000000,  -0.00080,
,,,2.384000000000,  -0.00020,
,,,2.388000000000,   0.00080,
,,,2.392000000000,   0.00000,
,,,2.396000000000,   0.00020,
,,,2.400000000000,   0.00000,
,,,2.404000000000,  -0.00020,
,,,2.408000000000,  -0.00120,
,,,2.412000000000,  -0.00040,
,,,2.416000000000,   0.00020,
,,,2.420000000000,  -0.00040,
,,,2.424000000000,   0.00000,
,,,2.428000000000,   0.00000,
,,,2.432000000000,  -0.00180,
,,,2.436000000000,  -0.00100,
,,,2.440000000000,   0.00020,
,,,2.444000000000,  -0.00060,
,,,2.448000000000,   0.00040,
,,,2.452000000000,   0.00040,
,,,2.456000000000,   0.00040,
,,,2.460000000000,   0.00020,
,,,2.464000000000,  -0.00060,
,,,2.468000000000,  -0.00140,
,,,2.472000000000,  -0.00020,
,,,2.476000000000,  -0.00020,
,,,2.480000000000,  -0.00040,
,,,2.484000000000,  -0.00020,
,,,2.488000000000,   0.00080,
,,,2.492000000000,   0.00040,
,,,2.496000000000,   0.00080,
,,,2.500000000000,  -0.00040,
,,,2.504000000000,  -0.00060,
,,,2.508000000000,   0.00020,
,,,2.512000000000,   0.00020,
,,,2.516000000000,  -0.00100,
,,,2.520000000000,   0.00000,
,,,2.524000000000,   0.00080,
,,,2.528000000000,  -0.00140,
,,,2.532000000000,  -0.00060,
,,,2.536000000000,  -0.00020,
,,,2.540000000000,  -0.00020,
,,,2.544000000000,  -0.00080,
,,,2.548000000000,  -0.00100,
,,,2.552000000000,  -0.00100,
,,,2.556000000000,   0.00180,
,,,2.560000000000,  -0.00040,
,,,2.564000000000,  -0.00020,
,,,2.568000000000,  -0.00040,
,,,2.572000000000,  -0.00020,
,,,2.576000000000,  -0.00060,
,,,2.580000000000,  -0.00040,
,,,2.584000000000,   0.00040,
,,,2.588000000000,   0.00040,
,,,2.592000000000,   0.00060,
,,,2.596000000000,   0.00060,
,,,2.600000000000,  -0.00060,
,,,2.604000000000,   0.00060,
,,,2.608000000000,   0.00040,
,,,2.612000000000,   0.00040,
,,,2.616000000000,  -0.00100,
,,,2.620000000000,   0.00000,
,,,2.624000000000,   0.00000,
,,,2.628000000000,   0.00020,
,,,2.632000000000,   0.00000,
,,,2.636000000000,  -0.00140,
,,,2.640000000000,   0.00020,
,,,2.644000000000,   0.00000,
,,,2.648000000000,  -0.00060,
,,,2.652000000000,  -0.00080,
,,,2.656000000000,   0.00020,
,,,2.660000000000,   0.00060,
,,,2.664000000000,  -0.00040,
,,,2.668000000000,   0.00040,
,,,2.672000000000,   0.00020,
,,,2.676000000000,  -0.00020,
,,,2.680000000000,   0.00000,
,,,2.684000000000,   0.00000,
,,,2.688000000000,  -0.00060,
,,,2.692000000000,  -0.00060,
,,,2.696000000000,  -0.00020,
,,,2.700000000000,  -0.00020,
,,,2.704000000000,  -0.00060,
,,,2.708000000000,  -0.00020,
,,,2.712000000000,  -0.00080,
,,,2.716000000000,   0.00000,
,,,2.720000000000,  -0.00040,
,,,2.724000000000,  -0.00020,
,,,2.728000000000,   0.00100,
,,,2.732000000000,   0.00000,
,,,2.736000000000,   0.00000,
,,,2.740000000000,   0.00080,
,,,2.744000000000,  -0.00020,
,,,2.748000000000,   0.00000,
,,,2.752000000000,   0.00000,
,,,2.756000000000,  -0.00040,
,,,2.760000000000,  -0.00040,
,,,2.764000000000,  -0.00020,
,,,2.768000000000,  -0.00080,
,,,2.772000000000,   0.00080,
,,,2.776000000000,  -0.00040,
,,,2.780000000000,  -0.00040,
,,,2.784000000000,  -0.00060,
,,,2.788000000000,  -0.00060,
,,,2.792000000000,   0.00000,
,,,2.796000000000,   0.00060,
,,,2.800000000000,   0.00000,
,,,2.804000000000,  -0.00020,
,,,2.808000000000,  -0.00080,
,,,2.812000000000,  -0.00080,
,,,2.816000000000,  -0.00060,
,,,2.820000000000,   0.00000,
,,,2.824000000000,   0.00000,
,,,2.828000000000,  -0.00040,
,,,2.832000000000,   0.00020,
,,,2.836000000000,  -0.00020,
,,,2.840000000000,   0.00080,
,,,2.844000000000,   0.00020,
,,,2.848000000000,  -0.00120,
,,,2.852000000000,   0.00060,
,,,2.856000000000,   0.00160,
,,,2.860000000000,  -0.00020,
,,,2.864000000000,   0.00060,
,,,2.868000000000,  -0.00200,
,,,2.872000000000,  -0.00040,
,,,2.876000000000,  -0.00040,
,,,2.880000000000,  -0.00160,
,,,2.884000000000,  -0.00020,
,,,2.888000000000,   0.00140,
,,,2.892000000000,   0.00040,
,,,2.896000000000,   0.00140,
,,,2.900000000000,   0.00060,
,,,2.904000000000,  -0.00120,
,,,2.908000000000,  -0.00180,
,,,2.912000000000,   0.00060,
,,,2.916000000000,  -0.00120,
,,,2.920000000000,   0.00080,
,,,2.924000000000,  -0.00020,
,,,2.928000000000,  -0.00240,
,,,2.932000000000,  -0.00140,
,,,2.936000000000,   0.00000,
,,,2.940000000000,  -0.00040,
,,,2.944000000000,  -0.00160,
,,,2.948000000000,   0.00200,
,,,2.952000000000,   0.00040,
,,,2.956000000000,   0.00020,
,,,2.960000000000,   0.00040,
,,,2.964000000000,   0.00120,
,,,2.968000000000,  -0.00100,
,,,2.972000000000,  -0.00120,
,,,2.976000000000,   0.00020,
,,,2.980000000000,   0.00020,
,,,2.984000000000,   0.00120,
,,,2.988000000000,  -0.00020,
,,,2.992000000000,   0.00020,
,,,2.996000000000,   0.00020,
,,,3.000000000000,  -0.00060,
,,,3.004000000000,  -0.00160,
,,,3.008000000000,   0.00040,
,,,3.012000000000,   0.00260,
,,,3.016000000000,  -0.00020,
,,,3.020000000000,   0.00200,
,,,3.024000000000,   0.00340,
,,,3.028000000000,  -0.00060,
,,,3.032000000000,  -0.00100,
,,,3.036000000000,  -0.00020,
,,,3.040000000000,  -0.00100,
,,,3.044000000000,  -0.00020,
,,,3.048000000000,   0.00000,
,,,3.052000000000,   0.00060,
,,,3.056000000000,   0.00040,
,,,3.060000000000,   0.00040,
,,,3.064000000000,  -0.00080,
,,,3.068000000000,   0.00020,
,,,3.072000000000,  -0.00020,
,,,3.076000000000,  -0.00040,
,,,3.080000000000,   0.00040,
,,,3.084000000000,  -0.00020,
,,,3.088000000000,   0.00000,
,,,3.092000000000,   0.00000,
,,,3.096000000000,  -0.00020,
,,,3.100000000000,  -0.00020,
,,,3.104000000000,  -0.00020,
,,,3.108000000000,  -0.00040,
,,,3.112000000000,  -0.00020,
,,,3.116000000000,  -0.00040,
,,,3.120000000000,   0.00000,
,,,3.124000000000,   0.00000,
,,,3.128000000000,   0.00020,
,,,3.132000000000,  -0.00060,
,,,3.136000000000,   0.00020,
,,,3.140000000000,   0.00100,
,,,3.144000000000,   0.00100,
,,,3.148000000000,   0.00000,
,,,3.152000000000,  -0.00080,
,,,3.156000000000,   0.00040,
,,,3.160000000000,   0.00060,
,,,3.164000000000,  -0.00020,
,,,3.168000000000,   0.00060,
,,,3.172000000000,   0.00080,
,,,3.176000000000,   0.00000,
,,,3.180000000000,  -0.00020,
,,,3.184000000000,   0.00000,
,,,3.188000000000,  -0.00020,
,,,3.192000000000,   0.00000,
,,,3.196000000000,   0.00060,
,,,3.200000000000,  -0.00020,
,,,3.204000000000,  -0.00020,
,,,3.208000000000,   0.00040,
,,,3.212000000000,  -0.00100,
,,,3.216000000000,  -0.00040,
,,,3.220000000000,   0.00100,
,,,3.224000000000,  -0.00080,
,,,3.228000000000,   0.00060,
,,,3.232000000000,  -0.00020,
,,,3.236000000000,   0.00100,
,,,3.240000000000,  -0.00020,
,,,3.244000000000,  -0.00020,
,,,3.248000000000,  -0.00080,
,,,3.252000000000,   0.00020,
,,,3.256000000000,   0.00060,
,,,3.260000000000,   0.00000,
,,,3.264000000000,  -0.00020,
,,,3.268000000000,  -0.00040,
,,,3.272000000000,   0.00080,
,,,3.276000000000,  -0.00020,
,,,3.280000000000,  -0.00020,
,,,3.284000000000,  -0.00040,
,,,3.288000000000,   0.00000,
,,,3.292000000000,   0.00000,
,,,3.296000000000,  -0.00040,
,,,3.300000000000,   0.00060,
,,,3.304000000000,   0.00060,
,,,3.308000000000,   0.00060,
,,,3.312000000000,   0.00000,
,,,3.316000000000,  -0.00040,
,,,3.320000000000,  -0.00040,
,,,3.324000000000,   0.00040,
,,,3.328000000000,   0.00020,
,,,3.332000000000,   0.00000,
,,,3.336000000000,   0.00000,
,,,3.340000000000,   0.00060,
,,,3.344000000000,   0.00000,
,,,3.348000000000,  -0.00080,
,,,3.352000000000,   0.00020,
,,,3.356000000000,   0.00020,
,,,3.360000000000,   0.00060,
,,,3.364000000000,  -0.00040,
,,,3.368000000000,   0.00060,
,,,3.372000000000,   0.00000,
,,,3.376000000000,   0.00100,
,,,3.380000000000,   0.00020,
,,,3.384000000000,   0.00000,
,,,3.388000000000,   0.00060,
,,,3.392000000000,   0.00040,
,,,3.396000000000,   0.00020,
,,,3.400000000000,  -0.00020,
,,,3.404000000000,  -0.00020,
,,,3.408000000000,   0.00020,
,,,3.412000000000,  -0.00040,
,,,3.416000000000,  -0.00080,
,,,3.420000000000,  -0.00060,
,,,3.424000000000,   0.00040,
,,,3.428000000000,  -0.00040,
,,,3.432000000000,   0.00040,
,,,3.436000000000,   0.00020,
,,,3.440000000000,  -0.00080,
,,,3.444000000000,  -0.00080,
,,,3.448000000000,  -0.00080,
,,,3.452000000000,  -0.00020,
,,,3.456000000000,   0.00000,
,,,3.460000000000,   0.00080,
,,,3.464000000000,   0.00020,
,,,3.468000000000,   0.00000,
,,,3.472000000000,   0.00080,
,,,3.476000000000,   0.00120,
,,,3.480000000000,  -0.00120,
,,,3.484000000000,   0.00200,
,,,3.488000000000,  -0.00020,
,,,3.492000000000,   0.00040,
,,,3.496000000000,  -0.00020,
,,,3.500000000000,  -0.00020,
,,,3.504000000000,  -0.00040,
,,,3.508000000000,  -0.00100,
,,,3.512000000000,  -0.00140,
,,,3.516000000000,   0.00000,
,,,3.520000000000,   0.00100,
,,,3.524000000000,   0.00060,
,,,3.528000000000,   0.00080,
,,,3.532000000000,  -0.00120,
,,,3.536000000000,  -0.00040,
,,,3.540000000000,   0.00080,
,,,3.544000000000,   0.00020,
,,,3.548000000000,   0.00060,
,,,3.552000000000,  -0.00120,
,,,3.556000000000,  -0.00020,
,,,3.560000000000,  -0.00180,
,,,3.564000000000,  -0.00220,
,,,3.568000000000,   0.00020,
,,,3.572000000000,  -0.00020,
,,,3.576000000000,   0.00000,
,,,3.580000000000,   0.00220,
,,,3.584000000000,   0.00080,
,,,3.588000000000,   0.00140,
,,,3.592000000000,   0.00060,
,,,3.596000000000,  -0.00140,
,,,3.600000000000,  -0.00120,
,,,3.604000000000,  -0.00040,
,,,3.608000000000,   0.00080,
,,,3.612000000000,  -0.00080,
,,,3.616000000000,  -0.00100,
,,,3.620000000000,   0.00100,
,,,3.624000000000,   0.00020,
,,,3.628000000000,   0.00060,
,,,3.632000000000,   0.00020,
,,,3.636000000000,   0.00080,
,,,3.640000000000,   0.00000,
,,,3.644000000000,   0.00080,
,,,3.648000000000,   0.00060,
,,,3.652000000000,  -0.00040,
,,,3.656000000000,  -0.00100,
,,,3.660000000000,  -0.00040,
,,,3.664000000000,   0.00040,
,,,3.668000000000,  -0.00240,
,,,3.672000000000,   0.00140,
,,,3.676000000000,   0.00000,
,,,3.680000000000,  -0.00020,
,,,3.684000000000,   0.00020,
,,,3.688000000000,   0.00060,
,,,3.692000000000,   0.00080,
,,,3.696000000000,   0.00140,
,,,3.700000000000,  -0.00020,
,,,3.704000000000,   0.00000,
,,,3.708000000000,   0.00000,
,,,3.712000000000,  -0.00020,
,,,3.716000000000,  -0.00200,
,,,3.720000000000,   0.00020,
,,,3.724000000000,   0.00020,
,,,3.728000000000,  -0.00040,
,,,3.732000000000,  -0.00140,
,,,3.736000000000,  -0.00020,
,,,3.740000000000,   0.00000,
,,,3.744000000000,  -0.00020,
,,,3.748000000000,   0.00040,
,,,3.752000000000,  -0.00040,
,,,3.756000000000,  -0.00020,
,,,3.760000000000,   0.00060,
,,,3.764000000000,   0.00000,
,,,3.768000000000,   0.00000,
,,,3.772000000000,  -0.00020,
,,,3.776000000000,  -0.00040,
,,,3.780000000000,   0.00040,
,,,3.784000000000,  -0.00040,
,,,3.788000000000,  -0.00060,
,,,3.792000000000,   0.00060,
,,,3.796000000000,   0.00040,
,,,3.800000000000,  -0.00060,
,,,3.804000000000,   0.00000,
,,,3.808000000000,   0.00040,
,,,3.812000000000,   0.00020,
,,,3.816000000000,   0.00020,
,,,3.820000000000,  -0.00020,
,,,3.824000000000,   0.00040,
,,,3.828000000000,  -0.00080,
,,,3.832000000000,  -0.00120,
,,,3.836000000000,   0.00020,
,,,3.840000000000,   0.00040,
,,,3.844000000000,   0.00040,
,,,3.848000000000,  -0.00040,
,,,3.852000000000,  -0.00020,
,,,3.856000000000,   0.00060,
,,,3.860000000000,  -0.00060,
,,,3.864000000000,  -0.00020,
,,,3.868000000000,   0.00000,
,,,3.872000000000,   0.00000,
,,,3.876000000000,  -0.00060,
,,,3.880000000000,  -0.00060,
,,,3.884000000000,  -0.00020,
,,,3.888000000000,  -0.00060,
,,,3.892000000000,   0.00040,
,,,3.896000000000,  -0.00060,
,,,3.900000000000,   0.00020,
,,,3.904000000000,  -0.00020,
,,,3.908000000000,   0.00000,
,,,3.912000000000,   0.00040,
,,,3.916000000000,   0.00080,
,,,3.920000000000,  -0.00040,
,,,3.924000000000,   0.00100,
,,,3.928000000000,   0.00100,
,,,3.932000000000,  -0.00080,
,,,3.936000000000,  -0.00100,
,,,3.940000000000,   0.00060,
,,,3.944000000000,   0.00020,
,,,3.948000000000,  -0.00060,
,,,3.952000000000,   0.00020,
,,,3.956000000000,  -0.00020,
,,,3.960000000000,  -0.00080,
,,,3.964000000000,  -0.00060,
,,,3.968000000000,  -0.00020,
,,,3.972000000000,   0.00020,
,,,3.976000000000,   0.00260,
,,,3.980000000000,  -0.00040,
,,,3.984000000000,  -0.00100,
,,,3.988000000000,   0.00040,
,,,3.992000000000,   0.00040,
,,,3.996000000000,  -0.00140,
,,,4.000000000000,  -0.00100,
,,,4.004000000000,  -0.00020,
,,,4.008000000000,  -0.00060,
,,,4.012000000000,   0.00060,
,,,4.016000000000,   0.00020,
,,,4.020000000000,   0.00000,
,,,4.024000000000,   0.00060,
,,,4.028000000000,   0.00120,
,,,4.032000000000,  -0.00060,
,,,4.036000000000,   0.00000,
,,,4.040000000000,  -0.00040,
,,,4.044000000000,   0.00020,
,,,4.048000000000,   0.00000,
,,,4.052000000000,  -0.00060,
,,,4.056000000000,   0.00000,
,,,4.060000000000,  -0.00020,
,,,4.064000000000,   0.00020,
,,,4.068000000000,  -0.00160,
,,,4.072000000000,   0.00060,
,,,4.076000000000,  -0.00020,
,,,4.080000000000,   0.00000,
,,,4.084000000000,   0.00040,
,,,4.088000000000,   0.00220,
,,,4.092000000000,  -0.00040,
,,,4.096000000000,  -0.00040,
,,,4.100000000000,   0.00000,
,,,4.104000000000,   0.00060,
,,,4.108000000000,   0.00060,
,,,4.112000000000,   0.00040,
,,,4.116000000000,   0.00000,
,,,4.120000000000,  -0.00020,
,,,4.124000000000,   0.00040,
,,,4.128000000000,   0.00080,
,,,4.132000000000,   0.00000,
,,,4.136000000000,   0.00040,
,,,4.140000000000,   0.00020,
,,,4.144000000000,  -0.00040,
,,,4.148000000000,  -0.00020,
,,,4.152000000000,   0.00020,
,,,4.156000000000,   0.00020,
,,,4.160000000000,   0.00060,
,,,4.164000000000,   0.00020,
,,,4.168000000000,  -0.00040,
,,,4.172000000000,  -0.00020,
,,,4.176000000000,  -0.00060,
,,,4.180000000000,   0.00020,
,,,4.184000000000,  -0.00040,
,,,4.188000000000,   0.00020,
,,,4.192000000000,  -0.00080,
,,,4.196000000000,  -0.00040,
,,,4.200000000000,  -0.00100,
,,,4.204000000000,   0.00060,
,,,4.208000000000,   0.00020,
,,,4.212000000000,  -0.00040,
,,,4.216000000000,  -0.00060,
,,,4.220000000000,  -0.00020,
,,,4.224000000000,   0.00120,
,,,4.228000000000,   0.00000,
,,,4.232000000000,  -0.00080,
,,,4.236000000000,   0.00040,
,,,4.240000000000,   0.00020,
,,,4.244000000000,   0.00040,
,,,4.248000000000,  -0.00020,
,,,4.252000000000,  -0.00020,
,,,4.256000000000,   0.00020,
,,,4.260000000000,   0.00000,
,,,4.264000000000,   0.00000,
,,,4.268000000000,  -0.00020,
,,,4.272000000000,   0.00080,
,,,4.276000000000,   0.00040,
,,,4.280000000000,  -0.00080,
,,,4.284000000000,   0.00000,
,,,4.288000000000,  -0.00020,
,,,4.292000000000,   0.00020,
,,,4.296000000000,  -0.00040,
,,,4.300000000000,  -0.00020,
,,,4.304000000000,   0.00020,
,,,4.308000000000,  -0.00020,
,,,4.312000000000,   0.00000,
,,,4.316000000000,   0.00040,
,,,4.320000000000,   0.00000,
,,,4.324000000000,   0.00000,
,,,4.328000000000,   0.00040,
,,,4.332000000000,   0.00020,
,,,4.336000000000,   0.00060,
,,,4.340000000000,   0.00000,
,,,4.344000000000,   0.00020,
,,,4.348000000000,   0.00020,
,,,4.352000000000,  -0.00020,
,,,4.356000000000,  -0.00020,
,,,4.360000000000,   0.00040,
,,,4.364000000000,  -0.00060,
,,,4.368000000000,   0.00000,
,,,4.372000000000,   0.00000,
,,,4.376000000000,  -0.00060,
,,,4.380000000000,  -0.00020,
,,,4.384000000000,   0.00040,
,,,4.388000000000,  -0.00020,
,,,4.392000000000,   0.00000,
,,,4.396000000000,  -0.00020,
,,,4.400000000000,  -0.00060,
,,,4.404000000000,   0.00060,
,,,4.408000000000,   0.00020,
,,,4.412000000000,   0.00000,
,,,4.416000000000,  -0.00040,
,,,4.420000000000,   0.00000,
,,,4.424000000000,  -0.00080,
,,,4.428000000000,  -0.00040,
,,,4.432000000000,   0.00040,
,,,4.436000000000,   0.00040,
,,,4.440000000000,  -0.00020,
,,,4.444000000000,   0.00120,
,,,4.448000000000,  -0.00040,
,,,4.452000000000,  -0.00020,
,,,4.456000000000,   0.00060,
,,,4.460000000000,  -0.00040,
,,,4.464000000000,  -0.00060,
,,,4.468000000000,   0.00020,
,,,4.472000000000,   0.00000,
,,,4.476000000000,  -0.00040,
,,,4.480000000000,   0.00040,
,,,4.484000000000,  -0.00060,
,,,4.488000000000,  -0.00020,
,,,4.492000000000,  -0.00020,
,,,4.496000000000,  -0.00020,
,,,4.500000000000,  -0.00100,
,,,4.504000000000,   0.00180,
,,,4.508000000000,   0.00060,
,,,4.512000000000,  -0.00040,
,,,4.516000000000,  -0.00040,
,,,4.520000000000,   0.00080,
,,,4.524000000000,  -0.00080,
,,,4.528000000000,   0.00040,
,,,4.532000000000,  -0.00020,
,,,4.536000000000,   0.00060,
,,,4.540000000000,   0.00040,
,,,4.544000000000,   0.00100,
,,,4.548000000000,   0.00020,
,,,4.552000000000,  -0.00040,
,,,4.556000000000,  -0.00020,
,,,4.560000000000,  -0.00120,
,,,4.564000000000,   0.00000,
,,,4.568000000000,   0.00020,
,,,4.572000000000,   0.00040,
,,,4.576000000000,   0.00000,
,,,4.580000000000,   0.00040,
,,,4.584000000000,  -0.00020,
,,,4.588000000000,   0.00040,
,,,4.592000000000,   0.00080,
,,,4.596000000000,  -0.00020,
,,,4.600000000000,   0.00000,
,,,4.604000000000,   0.00040,
,,,4.608000000000,  -0.00060,
,,,4.612000000000,  -0.00080,
,,,4.616000000000,   0.00040,
,,,4.620000000000,  -0.00200,
,,,4.624000000000,   0.00060,
,,,4.628000000000,   0.00080,
,,,4.632000000000,   0.00040,
,,,4.636000000000,   0.00080,
,,,4.640000000000,   0.00080,
,,,4.644000000000,   0.00000,
,,,4.648000000000,   0.00000,
,,,4.652000000000,  -0.00020,
,,,4.656000000000,   0.00000,
,,,4.660000000000,   0.00040,
,,,4.664000000000,   0.00000,
,,,4.668000000000,  -0.00080,
,,,4.672000000000,  -0.00020,
,,,4.676000000000,   0.00060,
,,,4.680000000000,  -0.00100,
,,,4.684000000000,   0.00000,
,,,4.688000000000,   0.00040,
,,,4.692000000000,  -0.00060,
,,,4.696000000000,  -0.00060,
,,,4.700000000000,   0.00100,
,,,4.704000000000,   0.00080,
,,,4.708000000000,  -0.00040,
,,,4.712000000000,  -0.00020,
,,,4.716000000000,  -0.00020,
,,,4.720000000000,   0.00000,
,,,4.724000000000,  -0.00020,
,,,4.728000000000,   0.00000,
,,,4.732000000000,   0.00020,
,,,4.736000000000,   0.00040,
,,,4.740000000000,   0.00020,
,,,4.744000000000,   0.00060,
,,,4.748000000000,  -0.00080,
,,,4.752000000000,  -0.00020,
,,,4.756000000000,   0.00040,
,,,4.760000000000,   0.00060,
,,,4.764000000000,   0.00000,
,,,4.768000000000,  -0.00020,
,,,4.772000000000,   0.00020,
,,,4.776000000000,   0.00020,
,,,4.780000000000,   0.00000,
,,,4.784000000000,   0.00000,
,,,4.788000000000,  -0.00020,
,,,4.792000000000,   0.00080,
,,,4.796000000000,   0.00000,
,,,4.800000000000,  -0.00040,
,,,4.804000000000,   0.00000,
,,,4.808000000000,   0.00020,
,,,4.812000000000,   0.00020,
,,,4.816000000000,  -0.00020,
,,,4.820000000000,  -0.00060,
,,,4.824000000000,  -0.00020,
,,,4.828000000000,  -0.00080,
,,,4.832000000000,   0.00000,
,,,4.836000000000,   0.00040,
,,,4.840000000000,  -0.00080,
,,,4.844000000000,  -0.00020,
,,,4.848000000000,  -0.00020,
,,,4.852000000000,   0.00080,
,,,4.856000000000,   0.00060,
,,,4.860000000000,   0.00060,
,,,4.864000000000,  -0.00060,
,,,4.868000000000,  -0.00040,
,,,4.872000000000,   0.00040,
,,,4.876000000000,  -0.00020,
,,,4.880000000000,  -0.00040,
,,,4.884000000000,   0.00040,
,,,4.888000000000,   0.00040,
,,,4.892000000000,   0.00020,
,,,4.896000000000,  -0.00020,
,,,4.900000000000,  -0.00080,
,,,4.904000000000,  -0.00040,
,,,4.908000000000,  -0.00020,
,,,4.912000000000,   0.00100,
,,,4.916000000000,   0.00000,
,,,4.920000000000,   0.00080,
,,,4.924000000000,   0.00040,
,,,4.928000000000,  -0.00080,
,,,4.932000000000,  -0.00120,
,,,4.936000000000,   0.00060,
,,,4.940000000000,   0.00020,
,,,4.944000000000,   0.00080,
,,,4.948000000000,   0.00020,
,,,4.952000000000,   0.00040,
,,,4.956000000000,  -0.00020,
,,,4.960000000000,   0.00060,
,,,4.964000000000,   0.00000,
,,,4.968000000000,  -0.00020,
,,,4.972000000000,   0.00120,
,,,4.976000000000,   0.00020,
,,,4.980000000000,   0.00000,
,,,4.984000000000,  -0.00020,
,,,4.988000000000,   0.00000,
,,,4.992000000000,   0.00000,
,,,4.996000000000,   0.00020,
,,,5.000000000000,  -0.00040,
,,,5.004000000000,   0.00040,
,,,5.008000000000,   0.00060,
,,,5.012000000000,   0.00080,
,,,5.016000000000,  -0.00040,
,,,5.020000000000,   0.00020,
,,,5.024000000000,   0.00000,
,,,5.028000000000,   0.00020,
,,,5.032000000000,  -0.00060,
,,,5.036000000000,   0.00000,
,,,5.040000000000,   0.00040,
,,,5.044000000000,   0.00000,
,,,5.048000000000,  -0.00020,
,,,5.052000000000,  -0.00120,
,,,5.056000000000,   0.00000,
,,,5.060000000000,   0.00000,
,,,5.064000000000,   0.00020,
,,,5.068000000000,  -0.00020,
,,,5.072000000000,  -0.00020,
,,,5.076000000000,  -0.00020,
,,,5.080000000000,   0.00020,
,,,5.084000000000,   0.00060,
,,,5.088000000000,  -0.00020,
,,,5.092000000000,   0.00060,
,,,5.096000000000,   0.00020,
,,,5.100000000000,  -0.00040,
,,,5.104000000000,  -0.00020,
,,,5.108000000000,   0.00020,
,,,5.112000000000,  -0.00040,
,,,5.116000000000,  -0.00060,
,,,5.120000000000,  -0.00020,
,,,5.124000000000,  -0.00020,
,,,5.128000000000,  -0.00040,
,,,5.132000000000,   0.00100,
,,,5.136000000000,   0.00020,
,,,5.140000000000,   0.00060,
,,,5.144000000000,  -0.00060,
,,,5.148000000000,  -0.00020,
,,,5.152000000000,   0.00120,
,,,5.156000000000,  -0.00020,
,,,5.160000000000,  -0.00060,
,,,5.164000000000,   0.00060,
,,,5.168000000000,   0.00000,
,,,5.172000000000,   0.00040,
,,,5.176000000000,  -0.00020,
,,,5.180000000000,   0.00040,
,,,5.184000000000,  -0.00020,
,,,5.188000000000,   0.00120,
,,,5.192000000000,   0.00020,
,,,5.196000000000,  -0.00040,
,,,5.200000000000,  -0.00040,
,,,5.204000000000,  -0.00020,
,,,5.208000000000,  -0.00080,
,,,5.212000000000,   0.00000,
,,,5.216000000000,  -0.00120,
,,,5.220000000000,  -0.00100,
,,,5.224000000000,   0.00100,
,,,5.228000000000,  -0.00020,
,,,5.232000000000,  -0.00040,
,,,5.236000000000,  -0.00100,
,,,5.240000000000,   0.00040,
,,,5.244000000000,  -0.00040,
,,,5.248000000000,  -0.00020,
,,,5.252000000000,  -0.00020,
,,,5.256000000000,  -0.00020,
,,,5.260000000000,   0.00000,
,,,5.264000000000,  -0.00120,
,,,5.268000000000,  -0.00120,
,,,5.272000000000,   0.00000,
,,,5.276000000000,  -0.00100,
,,,5.280000000000,  -0.00100,
,,,5.284000000000,   0.00060,
,,,5.288000000000,   0.00040,
,,,5.292000000000,  -0.00020,
,,,5.296000000000,  -0.00120,
,,,5.300000000000,   0.00240,
,,,5.304000000000,  -0.00080,
,,,5.308000000000,  -0.00020,
,,,5.312000000000,   0.00120,
,,,5.316000000000,  -0.00060,
,,,5.320000000000,  -0.00120,
,,,5.324000000000,   0.00140,
,,,5.328000000000,  -0.00180,
,,,5.332000000000,  -0.00040,
,,,5.336000000000,  -0.00060,
,,,5.340000000000,   0.00020,
,,,5.344000000000,   0.00060,
,,,5.348000000000,   0.00080,
,,,5.352000000000,   0.00000,
,,,5.356000000000,  -0.00020,
,,,5.360000000000,   0.00080,
,,,5.364000000000,   0.00000,
,,,5.368000000000,   0.00000,
,,,5.372000000000,   0.00080,
,,,5.376000000000,   0.00000,
,,,5.380000000000,   0.00080,
,,,5.384000000000,  -0.00020,
,,,5.388000000000,  -0.00020,
,,,5.392000000000,   0.00000,
,,,5.396000000000,   0.00080,
,,,5.400000000000,   0.00020,
,,,5.404000000000,   0.00060,
,,,5.408000000000,   0.00060,
,,,5.412000000000,   0.00060,
,,,5.416000000000,  -0.00020,
,,,5.420000000000,   0.00040,
,,,5.424000000000,   0.00020,
,,,5.428000000000,   0.00080,
,,,5.432000000000,   0.00040,
,,,5.436000000000,   0.00020,
,,,5.440000000000,   0.00000,
,,,5.444000000000,   0.00000,
,,,5.448000000000,  -0.00040,
,,,5.452000000000,  -0.00120,
,,,5.456000000000,   0.00020,
,,,5.460000000000,   0.00040,
,,,5.464000000000,  -0.00080,
,,,5.468000000000,  -0.00060,
,,,5.472000000000,   0.00020,
,,,5.476000000000,   0.00020,
,,,5.480000000000,   0.00000,
,,,5.484000000000,   0.00000,
,,,5.488000000000,   0.00060,
,,,5.492000000000,   0.00060,
,,,5.496000000000,  -0.00060,
,,,5.500000000000,   0.00000,
,,,5.504000000000,  -0.00040,
,,,5.508000000000,  -0.00040,
,,,5.512000000000,   0.00020,
,,,5.516000000000,  -0.00020,
,,,5.520000000000,  -0.00020,
,,,5.524000000000,   0.00040,
,,,5.528000000000,  -0.00020,
,,,5.532000000000,  -0.00080,
,,,5.536000000000,   0.00020,
,,,5.540000000000,  -0.00020,
,,,5.544000000000,   0.00040,
,,,5.548000000000,   0.00040,
,,,5.552000000000,   0.00040,
,,,5.556000000000,  -0.00040,
,,,5.560000000000,   0.00060,
,,,5.564000000000,  -0.00100,
,,,5.568000000000,   0.00040,
,,,5.572000000000,   0.00020,
,,,5.576000000000,   0.00040,
,,,5.580000000000,   0.00000,
,,,5.584000000000,   0.00000,
,,,5.588000000000,   0.00040,
,,,5.592000000000,   0.00020,
,,,5.596000000000,   0.00000,
,,,5.600000000000,  -0.00060,
,,,5.604000000000,   0.00000,
,,,5.608000000000,   0.00040,
,,,5.612000000000,  -0.00040,
,,,5.616000000000,  -0.00020,
,,,5.620000000000,  -0.00040,
,,,5.624000000000,   0.00020,
,,,5.628000000000,   0.00040,
,,,5.632000000000,   0.00040,
,,,5.636000000000,   0.00040,
,,,5.640000000000,   0.00040,
,,,5.644000000000,  -0.00020,
,,,5.648000000000,   0.00040,
,,,5.652000000000,   0.00040,
,,,5.656000000000,   0.00000,
,,,5.660000000000,   0.00060,
,,,5.664000000000,   0.00020,
,,,5.668000000000,   0.00020,
,,,5.672000000000,   0.00020,
,,,5.676000000000,  -0.00040,
,,,5.680000000000,  -0.00040,
,,,5.684000000000,  -0.00040,
,,,5.688000000000,   0.00080,
,,,5.692000000000,   0.00020,
,,,5.696000000000,   0.00000,
,,,5.700000000000,  -0.00020,
,,,5.704000000000,   0.00100,
,,,5.708000000000,  -0.00020,
,,,5.712000000000,   0.00000,
,,,5.716000000000,   0.00000,
,,,5.720000000000,  -0.00020,
,,,5.724000000000,   0.00060,
,,,5.728000000000,  -0.00060,
,,,5.732000000000,  -0.00060,
,,,5.736000000000,   0.00060,
,,,5.740000000000,   0.00060,
,,,5.744000000000,  -0.00020,
,,,5.748000000000,  -0.00120,
,,,5.752000000000,   0.00020,
,,,5.756000000000,  -0.00020,
,,,5.760000000000,  -0.00020,
,,,5.764000000000,   0.00000,
,,,5.768000000000,   0.00020,
,,,5.772000000000,   0.00040,
,,,5.776000000000,  -0.00120,
,,,5.780000000000,  -0.00060,
,,,5.784000000000,   0.00100,
,,,5.788000000000,  -0.00020,
,,,5.792000000000,  -0.00020,
,,,5.796000000000,   0.00100,
,,,5.800000000000,  -0.00020,
,,,5.804000000000,   0.00100,
,,,5.808000000000,  -0.00120,
,,,5.812000000000,   0.00040,
,,,5.816000000000,  -0.00080,
,,,5.820000000000,  -0.00020,
,,,5.824000000000,  -0.00040,
,,,5.828000000000,   0.00080,
,,,5.832000000000,  -0.00060,
,,,5.836000000000,   0.00020,
,,,5.840000000000,   0.00040,
,,,5.844000000000,   0.00000,
,,,5.848000000000,  -0.00020,
,,,5.852000000000,  -0.00040,
,,,5.856000000000,   0.00160,
,,,5.860000000000,   0.00000,
,,,5.864000000000,   0.00020,
,,,5.868000000000,  -0.00160,
,,,5.872000000000,   0.00040,
,,,5.876000000000,   0.00100,
,,,5.880000000000,   0.00020,
,,,5.884000000000,   0.00200,
,,,5.888000000000,   0.00200,
,,,5.892000000000,   0.00080,
,,,5.896000000000,   0.00040,
,,,5.900000000000,   0.00140,
,,,5.904000000000,  -0.00040,
,,,5.908000000000,  -0.00020,
,,,5.912000000000,   0.00060,
,,,5.916000000000,   0.00180,
,,,5.920000000000,   0.00020,
,,,5.924000000000,  -0.00020,
,,,5.928000000000,   0.00100,
,,,5.932000000000,   0.00040,
,,,5.936000000000,  -0.00120,
,,,5.940000000000,  -0.00100,
,,,5.944000000000,   0.00100,
,,,5.948000000000,   0.00080,
,,,5.952000000000,   0.00000,
,,,5.956000000000,   0.00100,
,,,5.960000000000,  -0.00020,
,,,5.964000000000,   0.00100,
,,,5.968000000000,  -0.00080,
,,,5.972000000000,  -0.00100,
,,,5.976000000000,   0.00000,
,,,5.980000000000,  -0.00020,
,,,5.984000000000,   0.00040,
,,,5.988000000000,   0.00000,
,,,5.992000000000,   0.00140,
,,,5.996000000000,   0.00080,
,,,6.000000000000,   0.00040,
,,,6.004000000000,  -0.00020,
,,,6.008000000000,   0.00020,
,,,6.012000000000,  -0.00160,
,,,6.016000000000,  -0.00020,
,,,6.020000000000,   0.00000,
,,,6.024000000000,  -0.00040,
,,,6.028000000000,  -0.00060,
,,,6.032000000000,  -0.00240,
,,,6.036000000000,   0.00060,
,,,6.040000000000,   0.00060,
,,,6.044000000000,   0.00060,
,,,6.048000000000,   0.00000,
,,,6.052000000000,   0.00040,
,,,6.056000000000,   0.00020,
,,,6.060000000000,   0.00020,
,,,6.064000000000,   0.00000,
,,,6.068000000000,   0.00020,
,,,6.072000000000,  -0.00180,
,,,6.076000000000,   0.00000,
,,,6.080000000000,   0.00060,
,,,6.084000000000,  -0.00040,
,,,6.088000000000,   0.00020,
,,,6.092000000000,   0.00080,
,,,6.096000000000,   0.00020,
,,,6.100000000000,  -0.00020,
,,,6.104000000000,  -0.00040,
,,,6.108000000000,   0.00020,
,,,6.112000000000,   0.00060,
,,,6.116000000000,  -0.00060,
,,,6.120000000000,   0.00000,
,,,6.124000000000,   0.00020,
,,,6.128000000000,   0.00020,
,,,6.132000000000,  -0.00040,
,,,6.136000000000,  -0.00020,
,,,6.140000000000,  -0.00120,
,,,6.144000000000,   0.00000,
,,,6.148000000000,  -0.00040,
,,,6.152000000000,   0.00080,
,,,6.156000000000,   0.00080,
,,,6.160000000000,   0.00100,
,,,6.164000000000,  -0.00020,
,,,6.168000000000,   0.00000,
,,,6.172000000000,   0.00040,
,,,6.176000000000,   0.00000,
,,,6.180000000000,  -0.00020,
,,,6.184000000000,  -0.00060,
,,,6.188000000000,   0.00040,
,,,6.192000000000,  -0.00060,
,,,6.196000000000,  -0.00020,
,,,6.200000000000,   0.00060,
,,,6.204000000000,  -0.00020,
,,,6.208000000000,  -0.00040,
,,,6.212000000000,   0.00100,
,,,6.216000000000,  -0.00040,
,,,6.220000000000,  -0.00020,
,,,6.224000000000,   0.00060,
,,,6.228000000000,   0.00020,
,,,6.232000000000,  -0.00020,
,,,6.236000000000,   0.00000,
,,,6.240000000000,   0.00100,
,,,6.244000000000,   0.00040,
,,,6.248000000000,   0.00020,
,,,6.252000000000,  -0.00240,
,,,6.256000000000,  -0.00020,
,,,6.260000000000,   0.00000,
,,,6.264000000000,   0.00020,
,,,6.268000000000,  -0.00040,
,,,6.272000000000,   0.00220,
,,,6.276000000000,   0.00060,
,,,6.280000000000,   0.00020,
,,,6.284000000000,   0.00080,
,,,6.288000000000,   0.00040,
,,,6.292000000000,   0.00020,
,,,6.296000000000,   0.00040,
,,,6.300000000000,   0.00000,
,,,6.304000000000,  -0.00060,
,,,6.308000000000,   0.00100,
,,,6.312000000000,   0.00000,
,,,6.316000000000,  -0.00040,
,,,6.320000000000,  -0.00040,
,,,6.324000000000,   0.00020,
,,,6.328000000000,   0.00000,
,,,6.332000000000,   0.00040,
,,,6.336000000000,  -0.00040,
,,,6.340000000000,   0.00100,
,,,6.344000000000,   0.00000,
,,,6.348000000000,   0.00000,
,,,6.352000000000,  -0.00040,
,,,6.356000000000,  -0.00020,
,,,6.360000000000,   0.00060,
,,,6.364000000000,   0.00020,
,,,6.368000000000,  -0.00020,
,,,6.372000000000,   0.00000,
,,,6.376000000000,  -0.00040,
,,,6.380000000000,   0.00040,
,,,6.384000000000,  -0.00060,
,,,6.388000000000,   0.00040,
,,,6.392000000000,  -0.00020,
,,,6.396000000000,   0.00040,
,,,6.400000000000,   0.00100,
,,,6.404000000000,   0.00040,
,,,6.408000000000,   0.00060,
,,,6.412000000000,   0.00020,
,,,6.416000000000,  -0.00060,
,,,6.420000000000,  -0.00140,
,,,6.424000000000,   0.00100,
,,,6.428000000000,   0.00040,
,,,6.432000000000,   0.00040,
,,,6.436000000000,  -0.00020,
,,,6.440000000000,   0.00060,
,,,6.444000000000,   0.00040,
,,,6.448000000000,  -0.00060,
,,,6.452000000000,   0.00000,
,,,6.456000000000,   0.00060,
,,,6.460000000000,   0.00060,
,,,6.464000000000,   0.00000,
,,,6.468000000000,  -0.00060,
,,,6.472000000000,   0.00060,
,,,6.476000000000,   0.00000,
,,,6.480000000000,  -0.00200,
,,,6.484000000000,  -0.00020,
,,,6.488000000000,  -0.00040,
,,,6.492000000000,   0.00020,
,,,6.496000000000,  -0.00120,
,,,6.500000000000,  -0.00040,
,,,6.504000000000,   0.00020,
,,,6.508000000000,   0.00020,
,,,6.512000000000,  -0.00020,
,,,6.516000000000,  -0.00020,
,,,6.520000000000,  -0.00020,
,,,6.524000000000,   0.00040,
,,,6.528000000000,  -0.00100,
,,,6.532000000000,  -0.00040,
,,,6.536000000000,   0.00000,
,,,6.540000000000,   0.00060,
,,,6.544000000000,   0.00040,
,,,6.548000000000,   0.00020,
,,,6.552000000000,  -0.00020,
,,,6.556000000000,  -0.00020,
,,,6.560000000000,  -0.00020,
,,,6.564000000000,  -0.00020,
,,,6.568000000000,   0.00000,
,,,6.572000000000,   0.00080,
,,,6.576000000000,   0.00020,
,,,6.580000000000,  -0.00020,
,,,6.584000000000,  -0.00060,
,,,6.588000000000,   0.00040,
,,,6.592000000000,  -0.00040,
,,,6.596000000000,  -0.00040,
,,,6.600000000000,  -0.00040,
,,,6.604000000000,   0.00000,
,,,6.608000000000,   0.00060,
,,,6.612000000000,   0.00060,
,,,6.616000000000,  -0.00040,
,,,6.620000000000,   0.00020,
,,,6.624000000000,   0.00120,
,,,6.628000000000,  -0.00020,
,,,6.632000000000,   0.00000,
,,,6.636000000000,   0.00040,
,,,6.640000000000,  -0.00020,
,,,6.644000000000,  -0.00040,
,,,6.648000000000,   0.00000,
,,,6.652000000000,  -0.00020,
,,,6.656000000000,   0.00020,
,,,6.660000000000,   0.00000,
,,,6.664000000000,  -0.00020,
,,,6.668000000000,   0.00000,
,,,6.672000000000,   0.00060,
,,,6.676000000000,   0.00000,
,,,6.680000000000,  -0.00020,
,,,6.684000000000,  -0.00060,
,,,6.688000000000,   0.00060,
,,,6.692000000000,   0.00040,
,,,6.696000000000,   0.00020,
,,,6.700000000000,  -0.00020,
,,,6.704000000000,  -0.00100,
,,,6.708000000000,   0.00040,
,,,6.712000000000,   0.00060,
,,,6.716000000000,   0.00000,
,,,6.720000000000,   0.00040,
,,,6.724000000000,   0.00200,
,,,6.728000000000,   0.00020,
,,,6.732000000000,  -0.00020,
,,,6.736000000000,   0.00020,
,,,6.740000000000,  -0.00020,
,,,6.744000000000,   0.00060,
,,,6.748000000000,  -0.00060,
,,,6.752000000000,  -0.00060,
,,,6.756000000000,   0.00040,
,,,6.760000000000,   0.00040,
,,,6.764000000000,  -0.00140,
,,,6.768000000000,  -0.00020,
,,,6.772000000000,   0.00040,
,,,6.776000000000,   0.00020,
,,,6.780000000000,  -0.00020,
,,,6.784000000000,   0.00200,
,,,6.788000000000,  -0.00060,
,,,6.792000000000,   0.00040,
,,,6.796000000000,   0.00020,
,,,6.800000000000,  -0.00100,
,,,6.804000000000,  -0.00140,
,,,6.808000000000,   0.00020,
,,,6.812000000000,   0.00100,
,,,6.816000000000,  -0.00060,
,,,6.820000000000,  -0.00080,
,,,6.824000000000,   0.00040,
,,,6.828000000000,   0.00060,
,,,6.832000000000,   0.00000,
,,,6.836000000000,   0.00000,
,,,6.840000000000,   0.00060,
,,,6.844000000000,   0.00080,
,,,6.848000000000,   0.00000,
,,,6.852000000000,  -0.00040,
,,,6.856000000000,   0.00040,
,,,6.860000000000,   0.00020,
,,,6.864000000000,   0.00000,
,,,6.868000000000,   0.00080,
,,,6.872000000000,   0.00020,
,,,6.876000000000,   0.00060,
,,,6.880000000000,  -0.00120,
,,,6.884000000000,  -0.00040,
,,,6.888000000000,   0.00040,
,,,6.892000000000,   0.00000,
,,,6.896000000000,   0.00000,
,,,6.900000000000,  -0.00020,
,,,6.904000000000,   0.00000,
,,,6.908000000000,  -0.00020,
,,,6.912000000000,   0.00060,
,,,6.916000000000,  -0.00020,
,,,6.920000000000,   0.00040,
,,,6.924000000000,  -0.00020,
,,,6.928000000000,   0.00100,
,,,6.932000000000,   0.00080,
,,,6.936000000000,   0.00040,
,,,6.940000000000,  -0.00020,
,,,6.944000000000,  -0.00040,
,,,6.948000000000,   0.00020,
,,,6.952000000000,  -0.00040,
,,,6.956000000000,  -0.00060,
,,,6.960000000000,  -0.00020,
,,,6.964000000000,  -0.00020,
,,,6.968000000000,  -0.00100,
,,,6.972000000000,  -0.00020,
,,,6.976000000000,   0.00000,
,,,6.980000000000,  -0.00040,
,,,6.984000000000,  -0.00080,
,,,6.988000000000,   0.00060,
,,,6.992000000000,   0.00020,
,,,6.996000000000,   0.00000,
,,,7.000000000000,  -0.00040,
,,,7.004000000000,   0.00080,
,,,7.008000000000,  -0.00080,
,,,7.012000000000,  -0.00020,
,,,7.016000000000,  -0.00040,
,,,7.020000000000,   0.00020,
,,,7.024000000000,   0.00020,
,,,7.028000000000,  -0.00100,
,,,7.032000000000,  -0.00040,
,,,7.036000000000,  -0.00080,
,,,7.040000000000,   0.00020,
,,,7.044000000000,  -0.00020,
,,,7.048000000000,   0.00240,
,,,7.052000000000,   0.00020,
,,,7.056000000000,   0.00040,
,,,7.060000000000,   0.00080,
,,,7.064000000000,   0.00040,
,,,7.068000000000,  -0.00160,
,,,7.072000000000,   0.00000,
,,,7.076000000000,   0.00020,
,,,7.080000000000,   0.00040,
,,,7.084000000000,  -0.00020,
,,,7.088000000000,   0.00080,
,,,7.092000000000,  -0.00080,
,,,7.096000000000,   0.00040,
,,,7.100000000000,  -0.00020,
,,,7.104000000000,  -0.00080,
,,,7.108000000000,   0.00080,
,,,7.112000000000,   0.00040,
,,,7.116000000000,   0.00040,
,,,7.120000000000,   0.00000,
,,,7.124000000000,   0.00020,
,,,7.128000000000,   0.00060,
,,,7.132000000000,  -0.00040,
,,,7.136000000000,   0.00040,
,,,7.140000000000,   0.00020,
,,,7.144000000000,  -0.00080,
,,,7.148000000000,   0.00020,
,,,7.152000000000,   0.00040,
,,,7.156000000000,   0.00020,
,,,7.160000000000,  -0.00040,
,,,7.164000000000,  -0.00060,
,,,7.168000000000,  -0.00080,
,,,7.172000000000,  -0.00060,
,,,7.176000000000,   0.00100,
,,,7.180000000000,   0.00060,
,,,7.184000000000,  -0.00020,
,,,7.188000000000,  -0.00040,
,,,7.192000000000,   0.00120,
,,,7.196000000000,  -0.00060,
,,,7.200000000000,  -0.00020,
,,,7.204000000000,  -0.00040,
,,,7.208000000000,   0.00020,
,,,7.212000000000,   0.00000,
,,,7.216000000000,   0.00060,
,,,7.220000000000,   0.00020,
,,,7.224000000000,   0.00040,
,,,7.228000000000,  -0.00040,
,,,7.232000000000,  -0.00040,
,,,7.236000000000,   0.00040,
,,,7.240000000000,   0.00000,
,,,7.244000000000,  -0.00060,
,,,7.248000000000,   0.00000,
,,,7.252000000000,   0.00000,
,,,7.256000000000,  -0.00060,
,,,7.260000000000,   0.00000,
,,,7.264000000000,   0.00020,
,,,7.268000000000,   0.00020,
,,,7.272000000000,   0.00000,
,,,7.276000000000,   0.00100,
,,,7.280000000000,  -0.00060,
,,,7.284000000000,  -0.00020,
,,,7.288000000000,   0.00020,
,,,7.292000000000,  -0.00020,
,,,7.296000000000,   0.00020,
,,,7.300000000000,  -0.00020,
,,,7.304000000000,   0.00020,
,,,7.308000000000,   0.00080,
,,,7.312000000000,   0.00060,
,,,7.316000000000,  -0.00080,
,,,7.320000000000,  -0.00020,
,,,7.324000000000,  -0.00040,
,,,7.328000000000,  -0.00020,
,,,7.332000000000,   0.00000,
,,,7.336000000000,   0.00120,
,,,7.340000000000,   0.00040,
,,,7.344000000000,   0.00000,
,,,7.348000000000,  -0.00080,
,,,7.352000000000,  -0.00120,
,,,7.356000000000,  -0.00060,
,,,7.360000000000,   0.00040,
,,,7.364000000000,  -0.00020,
,,,7.368000000000,   0.00060,
,,,7.372000000000,   0.00040,
,,,7.376000000000,   0.00060,
,,,7.380000000000,   0.00040,
,,,7.384000000000,  -0.00020,
,,,7.388000000000,  -0.00040,
,,,7.392000000000,  -0.00040,
,,,7.396000000000,  -0.00100,
,,,7.400000000000,   0.00000,
,,,7.404000000000,  -0.00020,
,,,7.408000000000,   0.00020,
,,,7.412000000000,  -0.00060,
,,,7.416000000000,   0.00160,
,,,7.420000000000,  -0.00040,
,,,7.424000000000,   0.00040,
,,,7.428000000000,   0.00080,
,,,7.432000000000,   0.00100,
,,,7.436000000000,  -0.00120,
,,,7.440000000000,   0.00040,
,,,7.444000000000,  -0.00020,
,,,7.448000000000,  -0.00100,
,,,7.452000000000,  -0.00060,
,,,7.456000000000,  -0.00080,
,,,7.460000000000,   0.00060,
,,,7.464000000000,   0.00060,
,,,7.468000000000,   0.00140,
,,,7.472000000000,   0.00000,
,,,7.476000000000,   0.00240,
,,,7.480000000000,  -0.00060,
,,,7.484000000000,   0.00060,
,,,7.488000000000,   0.00100,
,,,7.492000000000,  -0.00040,
,,,7.496000000000,  -0.00020,
,,,7.500000000000,   0.00160,
,,,7.504000000000,  -0.00100,
,,,7.508000000000,  -0.00100,
,,,7.512000000000,  -0.00040,
,,,7.516000000000,   0.00000,
,,,7.520000000000,  -0.00020,
,,,7.524000000000,   0.00000,
,,,7.528000000000,  -0.00040,
,,,7.532000000000,  -0.00040,
,,,7.536000000000,   0.00040,
,,,7.540000000000,   0.00020,
,,,7.544000000000,   0.00120,
,,,7.548000000000,   0.00040,
,,,7.552000000000,   0.00140,
,,,7.556000000000,   0.00040,
,,,7.560000000000,   0.00120,
,,,7.564000000000,  -0.00040,
,,,7.568000000000,  -0.00180,
,,,7.572000000000,  -0.00100,
,,,7.576000000000,  -0.00040,
,,,7.580000000000,   0.00080,
,,,7.584000000000,   0.00040,
,,,7.588000000000,   0.00000,
,,,7.592000000000,   0.00080,
,,,7.596000000000,   0.00020,
,,,7.600000000000,  -0.00040,
,,,7.604000000000,  -0.00120,
,,,7.608000000000,  -0.00100,
,,,7.612000000000,   0.00200,
,,,7.616000000000,  -0.00080,
,,,7.620000000000,   0.00200,
,,,7.624000000000,   0.00220,
,,,7.628000000000,  -0.00120,
,,,7.632000000000,  -0.00260,
,,,7.636000000000,   0.00000,
,,,7.640000000000,  -0.00160,
,,,7.644000000000,   0.00000,
,,,7.648000000000,  -0.00040,
,,,7.652000000000,   0.00200,
,,,7.656000000000,  -0.00040,
,,,7.660000000000,   0.00180,
,,,7.664000000000,  -0.00100,
,,,7.668000000000,  -0.00060,
,,,7.672000000000,   0.00000,
,,,7.676000000000,   0.00040,
,,,7.680000000000,   0.00060,
,,,7.684000000000,  -0.00020,
,,,7.688000000000,  -0.00020,
,,,7.692000000000,   0.00120,
,,,7.696000000000,  -0.00040,
,,,7.700000000000,  -0.00040,
,,,7.704000000000,   0.00020,
,,,7.708000000000,   0.00080,
,,,7.712000000000,   0.00000,
,,,7.716000000000,  -0.00080,
,,,7.720000000000,   0.00000,
,,,7.724000000000,   0.00080,
,,,7.728000000000,   0.00000,
,,,7.732000000000,   0.00000,
,,,7.736000000000,  -0.00020,
,,,7.740000000000,  -0.00020,
,,,7.744000000000,   0.00060,
,,,7.748000000000,  -0.00060,
,,,7.752000000000,   0.00020,
,,,7.756000000000,   0.00020,
,,,7.760000000000,   0.00000,
,,,7.764000000000,   0.00000,
,,,7.768000000000,  -0.00080,
,,,7.772000000000,  -0.00040,
,,,7.776000000000,  -0.00020,
,,,7.780000000000,   0.00000,
,,,7.784000000000,   0.00000,
,,,7.788000000000,   0.00100,
,,,7.792000000000,  -0.00060,
,,,7.796000000000,  -0.00020,
,,,7.800000000000,   0.00040,
,,,7.804000000000,   0.00020,
,,,7.808000000000,   0.00080,
,,,7.812000000000,   0.00060,
,,,7.816000000000,   0.00000,
,,,7.820000000000,   0.00040,
,,,7.824000000000,   0.00080,
,,,7.828000000000,   0.00060,
,,,7.832000000000,  -0.00040,
,,,7.836000000000,   0.00020,
,,,7.840000000000,   0.00060,
,,,7.844000000000,   0.00080,
,,,7.848000000000,  -0.00020,
,,,7.852000000000,   0.00040,
,,,7.856000000000,   0.00000,
,,,7.860000000000,  -0.00080,
,,,7.864000000000,   0.00100,
,,,7.868000000000,   0.00020,
,,,7.872000000000,  -0.00020,
,,,7.876000000000,  -0.00020,
,,,7.880000000000,   0.00000,
,,,7.884000000000,  -0.00040,
,,,7.888000000000,   0.00000,
,,,7.892000000000,   0.00040,
,,,7.896000000000,   0.00020,
,,,7.900000000000,   0.00040,
,,,7.904000000000,   0.00000,
,,,7.908000000000,   0.00040,
,,,7.912000000000,  -0.00060,
,,,7.916000000000,  -0.00020,
,,,7.920000000000,  -0.00100,
,,,7.924000000000,   0.00000,
,,,7.928000000000,   0.00000,
,,,7.932000000000,  -0.00100,
,,,7.936000000000,   0.00060,
,,,7.940000000000,   0.00040,
,,,7.944000000000,   0.00100,
,,,7.948000000000,  -0.00040,
,,,7.952000000000,   0.00060,
,,,7.956000000000,   0.00020,
,,,7.960000000000,   0.00080,
,,,7.964000000000,   0.00040,
,,,7.968000000000,  -0.00080,
,,,7.972000000000,  -0.00080,
,,,7.976000000000,   0.00040,
,,,7.980000000000,   0.00000,
,,,7.984000000000,  -0.00040,
,,,7.988000000000,   0.00020,
,,,7.992000000000,   0.00040,
,,,7.996000000000,  -0.00020,
,,,8.000000000000,   0.00000,
,,,8.004000000000,  -0.00080,
,,,8.008000000000,   0.00040,
,,,8.012000000000,  -0.00020,
,,,8.016000000000,  -0.00080,
,,,8.020000000000,  -0.00080,
,,,8.024000000000,   0.00000,
,,,8.028000000000,  -0.00020,
,,,8.032000000000,  -0.00060,
,,,8.036000000000,  -0.00040,
,,,8.040000000000,  -0.00040,
,,,8.044000000000,   0.00020,
,,,8.048000000000,  -0.00040,
,,,8.052000000000,   0.00000,
,,,8.056000000000,   0.00040,
,,,8.060000000000,  -0.00020,
,,,8.064000000000,   0.00100,
,,,8.068000000000,   0.00020,
,,,8.072000000000,   0.00040,
,,,8.076000000000,   0.00040,
,,,8.080000000000,  -0.00040,
,,,8.084000000000,  -0.00040,
,,,8.088000000000,  -0.00020,
,,,8.092000000000,   0.00060,
,,,8.096000000000,   0.00040,
,,,8.100000000000,  -0.00020,
,,,8.104000000000,  -0.00080,
,,,8.108000000000,  -0.00100,
,,,8.112000000000,   0.00040,
,,,8.116000000000,  -0.00020,
,,,8.120000000000,   0.00080,
,,,8.124000000000,   0.00120,
,,,8.128000000000,   0.00080,
,,,8.132000000000,   0.00000,
,,,8.136000000000,   0.00060,
,,,8.140000000000,  -0.00080,
,,,8.144000000000,  -0.00040,
,,,8.148000000000,  -0.00040,
,,,8.152000000000,   0.00040,
,,,8.156000000000,  -0.00020,
,,,8.160000000000,  -0.00140,
,,,8.164000000000,  -0.00040,
,,,8.168000000000,  -0.00120,
,,,8.172000000000,   0.00060,
,,,8.176000000000,   0.00000,
,,,8.180000000000,   0.00000,
,,,8.184000000000,  -0.00100,
,,,8.188000000000,  -0.00020,
,,,8.192000000000,  -0.00020,
,,,8.196000000000,  -0.00060,
,,,8.200000000000,  -0.00220,
,,,8.204000000000,  -0.00200,
,,,8.208000000000,  -0.00120,
,,,8.212000000000,  -0.00140,
,,,8.216000000000,  -0.00080,
,,,8.220000000000,   0.00260,
,,,8.224000000000,   0.00120,
,,,8.228000000000,   0.00020,
,,,8.232000000000,  -0.00140,
,,,8.236000000000,  -0.00040,
,,,8.240000000000,  -0.00180,
,,,8.244000000000,   0.00100,
,,,8.248000000000,  -0.00040,
,,,8.252000000000,   0.00080,
,,,8.256000000000,   0.00020,
,,,8.260000000000,  -0.00060,
,,,8.264000000000,   0.00040,
,,,8.268000000000,  -0.00040,
,,,8.272000000000,  -0.00060,
,,,8.276000000000,  -0.00040,
,,,8.280000000000,  -0.00080,
,,,8.284000000000,   0.00020,
,,,8.288000000000,   0.00100,
,,,8.292000000000,   0.00060,
,,,8.296000000000,   0.00080,
,,,8.300000000000,   0.00000,
,,,8.304000000000,   0.00000,
,,,8.308000000000,   0.00040,
,,,8.312000000000,   0.00040,
,,,8.316000000000,   0.00060,
,,,8.320000000000,  -0.00060,
,,,8.324000000000,   0.00100,
,,,8.328000000000,   0.00040,
,,,8.332000000000,   0.00000,
,,,8.336000000000,  -0.00080,
,,,8.340000000000,   0.00080,
,,,8.344000000000,   0.00020,
,,,8.348000000000,  -0.00020,
,,,8.352000000000,  -0.00040,
,,,8.356000000000,   0.00080,
,,,8.360000000000,  -0.00040,
,,,8.364000000000,  -0.00040,
,,,8.368000000000,  -0.00060,
,,,8.372000000000,   0.00020,
,,,8.376000000000,   0.00240,
,,,8.380000000000,   0.00000,
,,,8.384000000000,   0.00040,
,,,8.388000000000,  -0.00040,
,,,8.392000000000,  -0.00080,
,,,8.396000000000,  -0.00020,
,,,8.400000000000,   0.00080,
,,,8.404000000000,   0.00000,
,,,8.408000000000,   0.00020,
,,,8.412000000000,   0.00020,
,,,8.416000000000,   0.00100,
,,,8.420000000000,  -0.00080,
,,,8.424000000000,   0.00060,
,,,8.428000000000,   0.00060,
,,,8.432000000000,   0.00040,
,,,8.436000000000,   0.00060,
,,,8.440000000000,   0.00020,
,,,8.444000000000,   0.00080,
,,,8.448000000000,   0.00060,
,,,8.452000000000,  -0.00020,
,,,8.456000000000,  -0.00020,
,,,8.460000000000,   0.00100,
,,,8.464000000000,   0.00060,
,,,8.468000000000,  -0.00020,
,,,8.472000000000,   0.00000,
,,,8.476000000000,   0.00100,
,,,8.480000000000,  -0.00060,
,,,8.484000000000,  -0.00080,
,,,8.488000000000,   0.00080,
,,,8.492000000000,   0.00060,
,,,8.496000000000,   0.00040,
,,,8.500000000000,  -0.00040,
,,,8.504000000000,  -0.00020,
,,,8.508000000000,   0.00020,
,,,8.512000000000,   0.00020,
,,,8.516000000000,  -0.00220,
,,,8.520000000000,  -0.00040,
,,,8.524000000000,   0.00000,
,,,8.528000000000,  -0.00040,
,,,8.532000000000,   0.00000,
,,,8.536000000000,   0.00220,
,,,8.540000000000,   0.00060,
,,,8.544000000000,   0.00060,
,,,8.548000000000,   0.00040,
,,,8.552000000000,  -0.00040,
,,,8.556000000000,  -0.00160,
,,,8.560000000000,  -0.00080,
,,,8.564000000000,  -0.00020,
,,,8.568000000000,   0.00000,
,,,8.572000000000,  -0.00040,
,,,8.576000000000,   0.00040,
,,,8.580000000000,   0.00020,
,,,8.584000000000,  -0.00020,
,,,8.588000000000,  -0.00020,
,,,8.592000000000,   0.00020,
,,,8.596000000000,   0.00040,
,,,8.600000000000,   0.00000,
,,,8.604000000000,   0.00020,
,,,8.608000000000,   0.00080,
,,,8.612000000000,   0.00060,
,,,8.616000000000,  -0.00020,
,,,8.620000000000,   0.00040,
,,,8.624000000000,   0.00000,
,,,8.628000000000,   0.00060,
,,,8.632000000000,   0.00020,
,,,8.636000000000,   0.00000,
,,,8.640000000000,  -0.00060,
,,,8.644000000000,  -0.00060,
,,,8.648000000000,  -0.00100,
,,,8.652000000000,   0.00040,
,,,8.656000000000,   0.00000,
,,,8.660000000000,  -0.00040,
,,,8.664000000000,  -0.00080,
,,,8.668000000000,   0.00080,
,,,8.672000000000,   0.00040,
,,,8.676000000000,  -0.00020,
,,,8.680000000000,   0.00020,
,,,8.684000000000,  -0.00020,
,,,8.688000000000,   0.00040,
,,,8.692000000000,  -0.00040,
,,,8.696000000000,   0.00040,
,,,8.700000000000,  -0.00140,
,,,8.704000000000,  -0.00020,
,,,8.708000000000,  -0.00080,
,,,8.712000000000,   0.00000,
,,,8.716000000000,  -0.00020,
,,,8.720000000000,   0.00000,
,,,8.724000000000,  -0.00020,
,,,8.728000000000,  -0.00020,
,,,8.732000000000,  -0.00040,
,,,8.736000000000,   0.00000,
,,,8.740000000000,   0.00100,
,,,8.744000000000,   0.00080,
,,,8.748000000000,  -0.00100,
,,,8.752000000000,   0.00000,
,,,8.756000000000,   0.00000,
,,,8.760000000000,   0.00060,
,,,8.764000000000,   0.00020,
,,,8.768000000000,  -0.00120,
,,,8.772000000000,   0.00000,
,,,8.776000000000,  -0.00020,
,,,8.780000000000,  -0.00020,
,,,8.784000000000,   0.00040,
,,,8.788000000000,   0.00120,
,,,8.792000000000,   0.00060,
,,,8.796000000000,   0.00060,
,,,8.800000000000,  -0.00060,
,,,8.804000000000,   0.00020,
,,,8.808000000000,  -0.00200,
,,,8.812000000000,  -0.00100,
,,,8.816000000000,  -0.00040,
,,,8.820000000000,  -0.00020,
,,,8.824000000000,  -0.00020,
,,,8.828000000000,   0.00120,
,,,8.832000000000,  -0.00020,
,,,8.836000000000,  -0.00020,
,,,8.840000000000,  -0.00040,
,,,8.844000000000,  -0.00020,
,,,8.848000000000,   0.00000,
,,,8.852000000000,  -0.00120,
,,,8.856000000000,   0.00040,
,,,8.860000000000,  -0.00020,
,,,8.864000000000,   0.00020,
,,,8.868000000000,   0.00000,
,,,8.872000000000,  -0.00060,
,,,8.876000000000,  -0.00020,
,,,8.880000000000,  -0.00080,
,,,8.884000000000,  -0.00060,
,,,8.888000000000,   0.00040,
,,,8.892000000000,  -0.00020,
,,,8.896000000000,   0.00040,
,,,8.900000000000,  -0.00060,
,,,8.904000000000,   0.00060,
,,,8.908000000000,  -0.00080,
,,,8.912000000000,   0.00000,
,,,8.916000000000,   0.00040,
,,,8.920000000000,  -0.00080,
,,,8.924000000000,   0.00000,
,,,8.928000000000,   0.00080,
,,,8.932000000000,  -0.00120,
,,,8.936000000000,  -0.00040,
,,,8.940000000000,   0.00000,
,,,8.944000000000,  -0.00040,
,,,8.948000000000,  -0.00020,
,,,8.952000000000,   0.00020,
,,,8.956000000000,   0.00040,
,,,8.960000000000,   0.00020,
,,,8.964000000000,   0.00080,
,,,8.968000000000,  -0.00100,
,,,8.972000000000,   0.00000,
,,,8.976000000000,   0.00040,
,,,8.980000000000,  -0.00060,
,,,8.984000000000,   0.00020,
,,,8.988000000000,  -0.00020,
,,,8.992000000000,   0.00100,
,,,8.996000000000,   0.00000,
,,,9.000000000000,   0.00000,
,,,9.004000000000,  -0.00140,
,,,9.008000000000,   0.00020,
,,,9.012000000000,   0.00040,
,,,9.016000000000,  -0.00060,
,,,9.020000000000,   0.00000,
,,,9.024000000000,   0.00080,
,,,9.028000000000,   0.00000,
,,,9.032000000000,   0.00000,
,,,9.036000000000,  -0.00040,
,,,9.040000000000,   0.00020,
,,,9.044000000000,  -0.00080,
,,,9.048000000000,  -0.00060,
,,,9.052000000000,  -0.00020,
,,,9.056000000000,   0.00040,
,,,9.060000000000,  -0.00080,
,,,9.064000000000,   0.00100,
,,,9.068000000000,   0.00020,
,,,9.072000000000,  -0.00020,
,,,9.076000000000,  -0.00040,
,,,9.080000000000,  -0.00100,
,,,9.084000000000,   0.00140,
,,,9.088000000000,   0.00060,
,,,9.092000000000,   0.00020,
,,,9.096000000000,  -0.00020,
,,,9.100000000000,  -0.00020,
,,,9.104000000000,  -0.00020,
,,,9.108000000000,   0.00000,
,,,9.112000000000,   0.00000,
,,,9.116000000000,   0.00020,
,,,9.120000000000,   0.00080,
,,,9.124000000000,   0.00040,
,,,9.128000000000,   0.00060,
,,,9.132000000000,  -0.00040,
,,,9.136000000000,   0.00000,
,,,9.140000000000,   0.00020,
,,,9.144000000000,   0.00060,
,,,9.148000000000,   0.00020,
,,,9.152000000000,   0.00020,
,,,9.156000000000,  -0.00020,
,,,9.160000000000,   0.00060,
,,,9.164000000000,  -0.00060,
,,,9.168000000000,  -0.00040,
,,,9.172000000000,  -0.00020,
,,,9.176000000000,  -0.02560,
,,,9.180000000000,  -0.02560,
,,,9.184000000000,  -0.02560,
,,,9.188000000000,  -0.02560,
,,,9.192000000000,  -0.02560,
,,,9.196000000000,  -0.02560,
,,,9.200000000000,  -0.02560,
,,,9.204000000000,  -0.02560,
,,,9.208000000000,  -0.02560,
,,,9.212000000000,  -0.02560,
,,,9.216000000000,  -0.02560,
,,,9.220000000000,  -0.02560,
,,,9.224000000000,  -0.02560,
,,,9.228000000000,  -0.02560,
,,,9.232000000000,  -0.02560,
,,,9.236000000000,  -0.02560,
,,,9.240000000000,  -0.02560,
,,,9.244000000000,  -0.02560,
,,,9.248000000000,  -0.02560,
,,,9.252000000000,  -0.02560,
,,,9.256000000000,  -0.02560,
,,,9.260000000000,  -0.02560,
,,,9.264000000000,  -0.02560,
,,,9.268000000000,  -0.02560,
,,,9.272000000000,  -0.02560,
,,,9.276000000000,  -0.02560,
,,,9.280000000000,  -0.02560,
,,,9.284000000000,  -0.02560,
,,,9.288000000000,  -0.02560,
,,,9.292000000000,  -0.02560,
,,,9.296000000000,  -0.02560,
,,,9.300000000000,  -0.02560,
,,,9.304000000000,  -0.02560,
,,,9.308000000000,  -0.02560,
,,,9.312000000000,  -0.02560,
,,,9.316000000000,  -0.02560,
,,,9.320000000000,  -0.02560,
,,,9.324000000000,  -0.02560,
,,,9.328000000000,  -0.02560,
,,,9.332000000000,  -0.02560,
,,,9.336000000000,  -0.02560,
,,,9.340000000000,  -0.02560,
,,,9.344000000000,  -0.02560,
,,,9.348000000000,  -0.02560,
,,,9.352000000000,  -0.02560,
,,,9.356000000000,  -0.02560,
,,,9.360000000000,  -0.02560,
,,,9.364000000000,  -0.02560,
,,,9.368000000000,  -0.02560,
,,,9.372000000000,  -0.02560,
,,,9.376000000000,  -0.02560,
,,,9.380000000000,  -0.02560,
,,,9.384000000000,  -0.02560,
,,,9.388000000000,  -0.02560,
,,,9.392000000000,  -0.02560,
,,,9.396000000000,  -0.02560,
,,,9.400000000000,  -0.02560,
,,,9.404000000000,  -0.02560,
,,,9.408000000000,  -0.02560,
,,,9.412000000000,  -0.02560,
,,,9.416000000000,  -0.02560,
,,,9.420000000000,  -0.02560,
,,,9.424000000000,  -0.02560,
,,,9.428000000000,  -0.02560,
,,,9.432000000000,  -0.02560,
,,,9.436000000000,  -0.02560,
,,,9.440000000000,  -0.02560,
,,,9.444000000000,  -0.02560,
,,,9.448000000000,  -0.02560,
,,,9.452000000000,  -0.02560,
,,,9.456000000000,  -0.02560,
,,,9.460000000000,  -0.02560,
,,,9.464000000000,  -0.02560,
,,,9.468000000000,  -0.02560,
,,,9.472000000000,  -0.02560,
,,,9.476000000000,  -0.02560,
,,,9.480000000000,  -0.02560,
,,,9.484000000000,  -0.02560,
,,,9.488000000000,  -0.02560,
,,,9.492000000000,  -0.02560,
,,,9.496000000000,  -0.02560,
,,,9.500000000000,  -0.02560,
,,,9.504000000000,  -0.02560,
,,,9.508000000000,  -0.02560,
,,,9.512000000000,  -0.02560,
,,,9.516000000000,  -0.02560,
,,,9.520000000000,  -0.02560,
,,,9.524000000000,  -0.02560,
,,,9.528000000000,  -0.02560,
,,,9.532000000000,  -0.02560,
,,,9.536000000000,  -0.02560,
,,,9.540000000000,  -0.02560,
,,,9.544000000000,  -0.02560,
,,,9.548000000000,  -0.02560,
,,,9.552000000000,  -0.02560,
,,,9.556000000000,  -0.02560,
,,,9.560000000000,  -0.02560,
,,,9.564000000000,  -0.02560,
,,,9.568000000000,  -0.02560,
,,,9.572000000000,  -0.02560,
,,,9.576000000000,  -0.02560,
,,,9.580000000000,  -0.02560,
,,,9.584000000000,  -0.02560,
,,,9.588000000000,  -0.02560,
,,,9.592000000000,  -0.02560,
,,,9.596000000000,  -0.02560,
,,,9.600000000000,  -0.02560,
,,,9.604000000000,  -0.02560,
,,,9.608000000000,  -0.02560,
,,,9.612000000000,  -0.02560,
,,,9.616000000000,  -0.02560,
,,,9.620000000000,  -0.02560,
,,,9.624000000000,  -0.02560,
,,,9.628000000000,  -0.02560,
,,,9.632000000000,  -0.02560,
,,,9.636000000000,  -0.02560,
,,,9.640000000000,  -0.02560,
,,,9.644000000000,  -0.02560,
,,,9.648000000000,  -0.02560,
,,,9.652000000000,  -0.02560,
,,,9.656000000000,  -0.02560,
,,,9.660000000000,  -0.02560,
,,,9.664000000000,  -0.02560,
,,,9.668000000000,  -0.02560,
,,,9.672000000000,  -0.02560,
,,,9.676000000000,  -0.02560,
,,,9.680000000000,  -0.02560,
,,,9.684000000000,  -0.02560,
,,,9.688000000000,  -0.02560,
,,,9.692000000000,  -0.02560,
,,,9.696000000000,  -0.02560,
,,,9.700000000000,  -0.02560,
,,,9.704000000000,  -0.02560,
,,,9.708000000000,  -0.02560,
,,,9.712000000000,  -0.02560,
,,,9.716000000000,  -0.02560,
,,,9.720000000000,  -0.02560,
,,,9.724000000000,  -0.02560,
,,,9.728000000000,  -0.02560,
,,,9.732000000000,  -0.02560,
,,,9.736000000000,  -0.02560,
,,,9.740000000000,  -0.02560,
,,,9.744000000000,  -0.02560,
,,,9.748000000000,  -0.02560,
,,,9.752000000000,  -0.02560,
,,,9.756000000000,  -0.02560,
,,,9.760000000000,  -0.02560,
,,,9.764000000000,  -0.02560,
,,,9.768000000000,  -0.02560,
,,,9.772000000000,  -0.02560,
,,,9.776000000000,  -0.02560,
,,,9.780000000000,  -0.02560,
,,,9.784000000000,  -0.02560,
,,,9.788000000000,  -0.02560,
,,,9.792000000000,  -0.02560,
,,,9.796000000000,  -0.02560,
,,,9.800000000000,  -0.02560,
,,,9.804000000000,  -0.02560,
,,,9.808000000000,  -0.02560,
,,,9.812000000000,  -0.02560,
,,,9.816000000000,  -0.02560,
,,,9.820000000000,  -0.02560,
,,,9.824000000000,  -0.02560,
,,,9.828000000000,  -0.02560,
,,,9.832000000000,  -0.02560,
,,,9.836000000000,  -0.02560,
,,,9.840000000000,  -0.02560,
,,,9.844000000000,  -0.02560,
,,,9.848000000000,  -0.02560,
,,,9.852000000000,  -0.02560,
,,,9.856000000000,  -0.02560,
,,,9.860000000000,  -0.02560,
,,,9.864000000000,  -0.02560,
,,,9.868000000000,  -0.02560,
,,,9.872000000000,  -0.02560,
,,,9.876000000000,  -0.02560,
,,,9.880000000000,  -0.02560,
,,,9.884000000000,  -0.02560,
,,,9.888000000000,  -0.02560,
,,,9.892000000000,  -0.02560,
,,,9.896000000000,  -0.02560,
,,,9.900000000000,  -0.02560,
,,,9.904000000000,  -0.02560,
,,,9.908000000000,  -0.02560,
,,,9.912000000000,  -0.02560,
,,,9.916000000000,  -0.02560,
,,,9.920000000000,  -0.02560,
,,,9.924000000000,  -0.02560,
,,,9.928000000000,  -0.02560,
,,,9.932000000000,  -0.02560,
,,,9.936000000000,  -0.02560,
,,,9.940000000000,  -0.02560,
,,,9.944000000000,  -0.02560,
,,,9.948000000000,  -0.02560,
,,,9.952000000000,  -0.02560,
,,,9.956000000000,  -0.02560,
,,,9.960000000000,  -0.02560,
,,,9.964000000000,  -0.02560,
,,,9.968000000000,  -0.02560,
,,,9.972000000000,  -0.02560,
,,,9.976000000000,  -0.02560,
,,,9.980000000000,  -0.02560,
,,,9.984000000000,  -0.02560,
,,,9.988000000000,  -0.02560,
,,,9.992000000000,  -0.02560,
,,,9.996000000000,  -0.02560,
